# energy grid [eV]     epsr_x  epsr_y  epsr_z
# plasmon frequences [eV]:    14.839789595   14.839789595   14.839789595
    0.000000000   11.563370691   11.563370691   11.563370691
    0.015015015   11.563588635   11.563588634   11.563588634
    0.030030030   11.564242581   11.564242581   11.564242581
    0.045045045   11.565332878   11.565332877   11.565332877
    0.060060060   11.566860103   11.566860103   11.566860103
    0.075075075   11.568825070   11.568825070   11.568825070
    0.090090090   11.571228829   11.571228828   11.571228828
    0.105105105   11.574072666   11.574072665   11.574072665
    0.120120120   11.577358111   11.577358111   11.577358111
    0.135135135   11.581086942   11.581086941   11.581086941
    0.150150150   11.585261184   11.585261184   11.585261184
    0.165165165   11.589883124   11.589883123   11.589883123
    0.180180180   11.594955307   11.594955307   11.594955307
    0.195195195   11.600480552   11.600480552   11.600480552
    0.210210210   11.606461955   11.606461955   11.606461955
    0.225225225   11.612902901   11.612902901   11.612902901
    0.240240240   11.619807071   11.619807071   11.619807071
    0.255255255   11.627178457   11.627178457   11.627178457
    0.270270270   11.635021371   11.635021371   11.635021371
    0.285285285   11.643340462   11.643340462   11.643340462
    0.300300300   11.652140729   11.652140728   11.652140728
    0.315315315   11.661427538   11.661427538   11.661427538
    0.330330330   11.671206643   11.671206643   11.671206643
    0.345345345   11.681484205   11.681484205   11.681484205
    0.360360360   11.692266813   11.692266813   11.692266813
    0.375375375   11.703561514   11.703561514   11.703561514
    0.390390390   11.715375836   11.715375836   11.715375836
    0.405405405   11.727717823   11.727717823   11.727717823
    0.420420420   11.740596066   11.740596066   11.740596066
    0.435435435   11.754019745   11.754019745   11.754019745
    0.450450450   11.767998669   11.767998669   11.767998669
    0.465465465   11.782543324   11.782543324   11.782543324
    0.480480480   11.797664929   11.797664928   11.797664928
    0.495495495   11.813375491   11.813375490   11.813375490
    0.510510511   11.829687877   11.829687877   11.829687877
    0.525525526   11.846615889   11.846615889   11.846615889
    0.540540541   11.864174347   11.864174347   11.864174347
    0.555555556   11.882379190   11.882379190   11.882379190
    0.570570571   11.901247584   11.901247584   11.901247584
    0.585585586   11.920798051   11.920798051   11.920798051
    0.600600601   11.941050612   11.941050612   11.941050612
    0.615615616   11.962026954   11.962026954   11.962026954
    0.630630631   11.983750624   11.983750624   11.983750624
    0.645645646   12.006247252   12.006247252   12.006247252
    0.660660661   12.029544810   12.029544810   12.029544810
    0.675675676   12.053673919   12.053673919   12.053673919
    0.690690691   12.078668206   12.078668206   12.078668206
    0.705705706   12.104564727   12.104564726   12.104564726
    0.720720721   12.131404469   12.131404469   12.131404469
    0.735735736   12.159232956   12.159232955   12.159232955
    0.750750751   12.188100961   12.188100961   12.188100961
    0.765765766   12.218065383   12.218065383   12.218065383
    0.780780781   12.249190296   12.249190296   12.249190296
    0.795795796   12.281548236   12.281548236   12.281548236
    0.810810811   12.315221762   12.315221762   12.315221762
    0.825825826   12.350305382   12.350305382   12.350305382
    0.840840841   12.386907895   12.386907895   12.386907895
    0.855855856   12.425155246   12.425155246   12.425155246
    0.870870871   12.465193954   12.465193954   12.465193954
    0.885885886   12.507195095   12.507195095   12.507195095
    0.900900901   12.551358652   12.551358652   12.551358652
    0.915915916   12.597917531   12.597917531   12.597917531
    0.930930931   12.647139388   12.647139388   12.647139388
    0.945945946   12.699321628   12.699321628   12.699321628
    0.960960961   12.754768351   12.754768351   12.754768351
    0.975975976   12.813722225   12.813722224   12.813722224
    0.990990991   12.876186569   12.876186568   12.876186569
    1.006006006   12.941485777   12.941485776   12.941485776
    1.021021021   13.007235761   13.007235761   13.007235761
    1.036036036   13.067206085   13.067206085   13.067206085
    1.051051051   13.108347358   13.108347358   13.108347358
    1.066066066   13.112893335   13.112893335   13.112893335
    1.081081081   13.080050950   13.080050950   13.080050950
    1.096096096   13.048733538   13.048733538   13.048733538
    1.111111111   13.058053320   13.058053319   13.058053319
    1.126126126   13.104464466   13.104464466   13.104464466
    1.141141141   13.164739104   13.164739104   13.164739104
    1.156156156   13.227820227   13.227820227   13.227820227
    1.171171171   13.300386562   13.300386562   13.300386562
    1.186186186   13.383902585   13.383902584   13.383902584
    1.201201201   13.459166329   13.459166329   13.459166329
    1.216216216   13.490343920   13.490343920   13.490343920
    1.231231231   13.443173334   13.443173334   13.443173334
    1.246246246   13.334173062   13.334173062   13.334173062
    1.261261261   13.246626047   13.246626047   13.246626047
    1.276276276   13.240480605   13.240480605   13.240480605
    1.291291291   13.298688317   13.298688317   13.298688317
    1.306306306   13.370737720   13.370737720   13.370737720
    1.321321321   13.416558779   13.416558779   13.416558779
    1.336336336   13.435515113   13.435515113   13.435515113
    1.351351351   13.458171767   13.458171767   13.458171767
    1.366366366   13.493431870   13.493431870   13.493431870
    1.381381381   13.536083952   13.536083952   13.536083952
    1.396396396   13.598918990   13.598918990   13.598918990
    1.411411411   13.682291401   13.682291401   13.682291401
    1.426426426   13.760336780   13.760336780   13.760336780
    1.441441441   13.821320638   13.821320638   13.821320638
    1.456456456   13.891191221   13.891191221   13.891191221
    1.471471471   13.987074786   13.987074786   13.987074786
    1.486486486   14.080323188   14.080323188   14.080323188
    1.501501502   14.121646216   14.121646216   14.121646216
    1.516516517   14.085979032   14.085979032   14.085979032
    1.531531532   14.006451247   14.006451247   14.006451247
    1.546546547   13.959924005   13.959924004   13.959924004
    1.561561562   13.991466797   13.991466797   13.991466797
    1.576576577   14.066016899   14.066016899   14.066016899
    1.591591592   14.115027220   14.115027219   14.115027219
    1.606606607   14.106458259   14.106458258   14.106458258
    1.621621622   14.069997411   14.069997410   14.069997410
    1.636636637   14.046002330   14.046002330   14.046002330
    1.651651652   14.063461229   14.063461229   14.063461229
    1.666666667   14.141644175   14.141644174   14.141644174
    1.681681682   14.260358510   14.260358510   14.260358510
    1.696696697   14.389947651   14.389947650   14.389947650
    1.711711712   14.536210447   14.536210447   14.536210447
    1.726726727   14.718467984   14.718467984   14.718467984
    1.741741742   14.929198972   14.929198972   14.929198972
    1.756756757   15.139200789   15.139200789   15.139200789
    1.771771772   15.315998640   15.315998640   15.315998640
    1.786786787   15.441023267   15.441023267   15.441023267
    1.801801802   15.508130399   15.508130398   15.508130399
    1.816816817   15.498660659   15.498660659   15.498660659
    1.831831832   15.410657993   15.410657992   15.410657992
    1.846846847   15.296041928   15.296041928   15.296041928
    1.861861862   15.222961741   15.222961741   15.222961741
    1.876876877   15.214865662   15.214865662   15.214865662
    1.891891892   15.260916424   15.260916424   15.260916424
    1.906906907   15.339550346   15.339550346   15.339550346
    1.921921922   15.433946029   15.433946029   15.433946029
    1.936936937   15.540651326   15.540651325   15.540651326
    1.951951952   15.669917949   15.669917949   15.669917949
    1.966966967   15.837259130   15.837259129   15.837259130
    1.981981982   16.028683238   16.028683238   16.028683238
    1.996996997   16.205992139   16.205992139   16.205992139
    2.012012012   16.366899099   16.366899099   16.366899099
    2.027027027   16.559584711   16.559584710   16.559584711
    2.042042042   16.818685650   16.818685649   16.818685649
    2.057057057   17.135086839   17.135086839   17.135086839
    2.072072072   17.460819166   17.460819166   17.460819166
    2.087087087   17.721096529   17.721096529   17.721096529
    2.102102102   17.835103449   17.835103448   17.835103448
    2.117117117   17.785244862   17.785244861   17.785244862
    2.132132132   17.676021332   17.676021332   17.676021332
    2.147147147   17.634391563   17.634391563   17.634391563
    2.162162162   17.703300123   17.703300123   17.703300123
    2.177177177   17.855114153   17.855114153   17.855114153
    2.192192192   18.053926577   18.053926577   18.053926577
    2.207207207   18.305654578   18.305654578   18.305654578
    2.222222222   18.635955640   18.635955640   18.635955640
    2.237237237   19.043575422   19.043575422   19.043575422
    2.252252252   19.502764201   19.502764201   19.502764201
    2.267267267   19.984620847   19.984620847   19.984620847
    2.282282282   20.446141275   20.446141275   20.446141275
    2.297297297   20.834039335   20.834039335   20.834039335
    2.312312312   21.129648413   21.129648413   21.129648413
    2.327327327   21.367981954   21.367981953   21.367981953
    2.342342342   21.569366231   21.569366231   21.569366231
    2.357357357   21.715026469   21.715026468   21.715026468
    2.372372372   21.763933104   21.763933104   21.763933104
    2.387387387   21.628684280   21.628684280   21.628684280
    2.402402402   21.226233220   21.226233220   21.226233220
    2.417417417   20.595546115   20.595546115   20.595546115
    2.432432432   19.870588435   19.870588435   19.870588435
    2.447447447   19.157459759   19.157459759   19.157459759
    2.462462462   18.470880326   18.470880325   18.470880325
    2.477477477   17.804491472   17.804491472   17.804491472
    2.492492492   17.200971344   17.200971343   17.200971343
    2.507507508   16.719441742   16.719441741   16.719441742
    2.522522523   16.390649998   16.390649998   16.390649998
    2.537537538   16.185880387   16.185880387   16.185880387
    2.552552553   16.017924840   16.017924839   16.017924839
    2.567567568   15.758853007   15.758853006   15.758853006
    2.582582583   15.315510016   15.315510016   15.315510016
    2.597597598   14.723156190   14.723156190   14.723156190
    2.612612613   14.067048812   14.067048811   14.067048811
    2.627627628   13.384952713   13.384952713   13.384952713
    2.642642643   12.760958604   12.760958603   12.760958604
    2.657657658   12.377437733   12.377437732   12.377437733
    2.672672673   12.317702711   12.317702711   12.317702711
    2.687687688   12.488997163   12.488997163   12.488997163
    2.702702703   12.739688451   12.739688451   12.739688452
    2.717717718   12.949690026   12.949690026   12.949690026
    2.732732733   13.071860213   13.071860213   13.071860213
    2.747747748   13.098741913   13.098741913   13.098741913
    2.762762763   12.989581454   12.989581454   12.989581454
    2.777777778   12.716570917   12.716570917   12.716570917
    2.792792793   12.337822933   12.337822933   12.337822933
    2.807807808   11.932543412   11.932543412   11.932543412
    2.822822823   11.525127127   11.525127127   11.525127127
    2.837837838   11.136389608   11.136389608   11.136389608
    2.852852853   10.834900885   10.834900885   10.834900885
    2.867867868   10.682196345   10.682196345   10.682196345
    2.882882883   10.682410214   10.682410214   10.682410214
    2.897897898   10.787341210   10.787341210   10.787341210
    2.912912913   10.922454352   10.922454352   10.922454352
    2.927927928   11.050654073   11.050654073   11.050654073
    2.942942943   11.161341149   11.161341149   11.161341149
    2.957957958   11.218542633   11.218542633   11.218542633
    2.972972973   11.214306263   11.214306263   11.214306263
    2.987987988   11.199025015   11.199025015   11.199025015
    3.003003003   11.226682912   11.226682912   11.226682912
    3.018018018   11.301301144   11.301301144   11.301301144
    3.033033033   11.327847502   11.327847502   11.327847502
    3.048048048   11.205529422   11.205529421   11.205529421
    3.063063063   10.973853245   10.973853244   10.973853244
    3.078078078   10.725108880   10.725108880   10.725108880
    3.093093093   10.485068815   10.485068815   10.485068815
    3.108108108   10.273986514   10.273986514   10.273986514
    3.123123123   10.157814097   10.157814097   10.157814097
    3.138138138   10.175812665   10.175812665   10.175812665
    3.153153153   10.274380688   10.274380688   10.274380688
    3.168168168   10.340382169   10.340382168   10.340382168
    3.183183183   10.343087498   10.343087497   10.343087497
    3.198198198   10.383255391   10.383255391   10.383255391
    3.213213213   10.544262285   10.544262285   10.544262285
    3.228228228   10.805275865   10.805275865   10.805275865
    3.243243243   11.106456019   11.106456019   11.106456019
    3.258258258   11.419032413   11.419032413   11.419032413
    3.273273273   11.701932912   11.701932911   11.701932911
    3.288288288   11.898944011   11.898944011   11.898944011
    3.303303303   11.970415030   11.970415029   11.970415030
    3.318318318   11.879813435   11.879813435   11.879813435
    3.333333333   11.622004370   11.622004370   11.622004370
    3.348348348   11.264967443   11.264967442   11.264967443
    3.363363363   10.916834741   10.916834741   10.916834741
    3.378378378   10.696190052   10.696190052   10.696190052
    3.393393393   10.683391255   10.683391255   10.683391255
    3.408408408   10.848030830   10.848030830   10.848030830
    3.423423423   11.083014325   11.083014325   11.083014325
    3.438438438   11.323632301   11.323632301   11.323632301
    3.453453453   11.568168377   11.568168377   11.568168377
    3.468468468   11.815877127   11.815877127   11.815877127
    3.483483483   12.089037059   12.089037059   12.089037059
    3.498498498   12.406417159   12.406417159   12.406417159
    3.513513514   12.722894162   12.722894162   12.722894162
    3.528528529   12.993315009   12.993315009   12.993315009
    3.543543544   13.206154883   13.206154883   13.206154883
    3.558558559   13.349183855   13.349183855   13.349183855
    3.573573574   13.434326707   13.434326707   13.434326707
    3.588588589   13.506939000   13.506939000   13.506939000
    3.603603604   13.574937600   13.574937600   13.574937600
    3.618618619   13.648595145   13.648595144   13.648595145
    3.633633634   13.783119964   13.783119964   13.783119964
    3.648648649   13.990766143   13.990766142   13.990766142
    3.663663664   14.254305937   14.254305937   14.254305937
    3.678678679   14.561581786   14.561581786   14.561581786
    3.693693694   14.870567258   14.870567258   14.870567258
    3.708708709   15.136688018   15.136688018   15.136688018
    3.723723724   15.346775924   15.346775924   15.346775924
    3.738738739   15.527523627   15.527523627   15.527523627
    3.753753754   15.704503554   15.704503554   15.704503554
    3.768768769   15.840652163   15.840652163   15.840652163
    3.783783784   15.860365779   15.860365779   15.860365779
    3.798798799   15.747360064   15.747360063   15.747360064
    3.813813814   15.563587501   15.563587500   15.563587500
    3.828828829   15.368365706   15.368365706   15.368365706
    3.843843844   15.176153565   15.176153565   15.176153565
    3.858858859   14.996230759   14.996230758   14.996230759
    3.873873874   14.842028745   14.842028744   14.842028745
    3.888888889   14.701852243   14.701852243   14.701852243
    3.903903904   14.548318647   14.548318646   14.548318647
    3.918918919   14.390017562   14.390017562   14.390017562
    3.933933934   14.285685597   14.285685597   14.285685597
    3.948948949   14.246453542   14.246453542   14.246453542
    3.963963964   14.224161957   14.224161957   14.224161957
    3.978978979   14.209511894   14.209511894   14.209511894
    3.993993994   14.197486046   14.197486046   14.197486046
    4.009009009   14.119394508   14.119394508   14.119394508
    4.024024024   13.930386554   13.930386554   13.930386554
    4.039039039   13.686235341   13.686235340   13.686235340
    4.054054054   13.486465338   13.486465338   13.486465338
    4.069069069   13.391952620   13.391952619   13.391952619
    4.084084084   13.430785323   13.430785322   13.430785322
    4.099099099   13.594240476   13.594240475   13.594240475
    4.114114114   13.819877847   13.819877847   13.819877847
    4.129129129   14.052557755   14.052557754   14.052557754
    4.144144144   14.275643151   14.275643151   14.275643151
    4.159159159   14.470487667   14.470487667   14.470487667
    4.174174174   14.612407890   14.612407890   14.612407890
    4.189189189   14.698430053   14.698430053   14.698430053
    4.204204204   14.707827263   14.707827263   14.707827263
    4.219219219   14.582117065   14.582117065   14.582117065
    4.234234234   14.290748055   14.290748054   14.290748054
    4.249249249   13.894461157   13.894461157   13.894461157
    4.264264264   13.449880464   13.449880464   13.449880464
    4.279279279   12.916260714   12.916260714   12.916260714
    4.294294294   12.155878783   12.155878783   12.155878783
    4.309309309   10.989851233   10.989851232   10.989851232
    4.324324324    9.297876830    9.297876830    9.297876830
    4.339339339    7.056826519    7.056826519    7.056826519
    4.354354354    4.375438108    4.375438108    4.375438108
    4.369369369    1.597027189    1.597027189    1.597027189
    4.384384384   -0.823827848   -0.823827848   -0.823827848
    4.399399399   -2.688790544   -2.688790544   -2.688790544
    4.414414414   -4.086596569   -4.086596569   -4.086596569
    4.429429429   -5.250057827   -5.250057827   -5.250057827
    4.444444444   -6.443750977   -6.443750977   -6.443750977
    4.459459459   -7.676438106   -7.676438106   -7.676438106
    4.474474474   -8.598742167   -8.598742167   -8.598742167
    4.489489489   -8.900525031   -8.900525031   -8.900525031
    4.504504505   -8.625073539   -8.625073539   -8.625073539
    4.519519520   -8.074209968   -8.074209968   -8.074209968
    4.534534535   -7.547424392   -7.547424392   -7.547424392
    4.549549550   -7.222558515   -7.222558515   -7.222558515
    4.564564565   -7.232890450   -7.232890450   -7.232890450
    4.579579580   -7.696251228   -7.696251229   -7.696251229
    4.594594595   -8.582118326   -8.582118326   -8.582118326
    4.609609610   -9.540174532   -9.540174532   -9.540174532
    4.624624625  -10.053534895  -10.053534895  -10.053534895
    4.639639640   -9.921454888   -9.921454888   -9.921454888
    4.654654655   -9.328724494   -9.328724494   -9.328724494
    4.669669670   -8.547676058   -8.547676058   -8.547676058
    4.684684685   -7.757993582   -7.757993582   -7.757993582
    4.699699700   -7.047674206   -7.047674206   -7.047674206
    4.714714715   -6.483095067   -6.483095068   -6.483095068
    4.729729730   -6.137588738   -6.137588738   -6.137588738
    4.744744745   -6.064298744   -6.064298744   -6.064298744
    4.759759760   -6.273632436   -6.273632436   -6.273632436
    4.774774775   -6.750867065   -6.750867065   -6.750867065
    4.789789790   -7.429866089   -7.429866089   -7.429866089
    4.804804805   -8.101685943   -8.101685943   -8.101685943
    4.819819820   -8.470054645   -8.470054645   -8.470054645
    4.834834835   -8.431644955   -8.431644955   -8.431644955
    4.849849850   -8.128938746   -8.128938746   -8.128938746
    4.864864865   -7.718821472   -7.718821472   -7.718821472
