# energy grid [eV]     ieps_x  ieps_y  ieps_z
#
    0.000000000   11.516646799   11.516646799   11.516646799
    0.015015015   11.515432200   11.515432200   11.515432200
    0.030030030   11.513330644   11.513330644   11.513330644
    0.045045045   11.510789911   11.510789911   11.510789911
    0.060060060   11.507816730   11.507816730   11.507816730
    0.075075075   11.504412687   11.504412687   11.504412687
    0.090090090   11.500579568   11.500579568   11.500579568
    0.105105105   11.496319373   11.496319373   11.496319373
    0.120120120   11.491634310   11.491634310   11.491634310
    0.135135135   11.486526787   11.486526787   11.486526787
    0.150150150   11.480999414   11.480999414   11.480999414
    0.165165165   11.475054988   11.475054988   11.475054988
    0.180180180   11.468696490   11.468696490   11.468696490
    0.195195195   11.461927081   11.461927081   11.461927081
    0.210210210   11.454750090   11.454750090   11.454750090
    0.225225225   11.447169007   11.447169007   11.447169007
    0.240240240   11.439187480   11.439187480   11.439187480
    0.255255255   11.430809303   11.430809303   11.430809303
    0.270270270   11.422038410   11.422038410   11.422038410
    0.285285285   11.412878866   11.412878866   11.412878866
    0.300300300   11.403334860   11.403334860   11.403334860
    0.315315315   11.393410697   11.393410697   11.393410697
    0.330330330   11.383110792   11.383110792   11.383110792
    0.345345345   11.372439658   11.372439658   11.372439658
    0.360360360   11.361401902   11.361401902   11.361401902
    0.375375375   11.350002217   11.350002217   11.350002217
    0.390390390   11.338245372   11.338245372   11.338245372
    0.405405405   11.326136209   11.326136209   11.326136209
    0.420420420   11.313679634   11.313679634   11.313679634
    0.435435435   11.300880608   11.300880608   11.300880608
    0.450450450   11.287744144   11.287744144   11.287744144
    0.465465465   11.274275299   11.274275299   11.274275299
    0.480480480   11.260479168   11.260479167   11.260479168
    0.495495495   11.246360877   11.246360877   11.246360877
    0.510510511   11.231925581   11.231925581   11.231925581
    0.525525526   11.217178455   11.217178455   11.217178455
    0.540540541   11.202124688   11.202124688   11.202124688
    0.555555556   11.186769483   11.186769483   11.186769483
    0.570570571   11.171118047   11.171118047   11.171118047
    0.585585586   11.155175592   11.155175592   11.155175592
    0.600600601   11.138947325   11.138947325   11.138947325
    0.615615616   11.122438449   11.122438449   11.122438449
    0.630630631   11.105654156   11.105654156   11.105654156
    0.645645646   11.088599624   11.088599624   11.088599624
    0.660660661   11.071280017   11.071280017   11.071280017
    0.675675676   11.053700477   11.053700477   11.053700477
    0.690690691   11.035866125   11.035866125   11.035866125
    0.705705706   11.017782057   11.017782057   11.017782057
    0.720720721   10.999453341   10.999453341   10.999453341
    0.735735736   10.980885014   10.980885014   10.980885014
    0.750750751   10.962082084   10.962082083   10.962082083
    0.765765766   10.943049520   10.943049520   10.943049520
    0.780780781   10.923792261   10.923792261   10.923792261
    0.795795796   10.904315205   10.904315205   10.904315205
    0.810810811   10.884623212   10.884623212   10.884623212
    0.825825826   10.864721100   10.864721100   10.864721100
    0.840840841   10.844613648   10.844613648   10.844613648
    0.855855856   10.824305590   10.824305590   10.824305590
    0.870870871   10.803801618   10.803801618   10.803801618
    0.885885886   10.783106376   10.783106376   10.783106376
    0.900900901   10.762224464   10.762224464   10.762224464
    0.915915916   10.741160437   10.741160437   10.741160437
    0.930930931   10.719918800   10.719918800   10.719918800
    0.945945946   10.698504012   10.698504012   10.698504012
    0.960960961   10.676920482   10.676920482   10.676920482
    0.975975976   10.655172572   10.655172571   10.655172571
    0.990990991   10.633264592   10.633264592   10.633264592
    1.006006006   10.611200804   10.611200804   10.611200804
    1.021021021   10.588985422   10.588985422   10.588985422
    1.036036036   10.566622605   10.566622605   10.566622605
    1.051051051   10.544116467   10.544116467   10.544116467
    1.066066066   10.521471067   10.521471067   10.521471067
    1.081081081   10.498690415   10.498690415   10.498690415
    1.096096096   10.475778471   10.475778471   10.475778471
    1.111111111   10.452739144   10.452739144   10.452739144
    1.126126126   10.429576292   10.429576292   10.429576292
    1.141141141   10.406293722   10.406293722   10.406293722
    1.156156156   10.382895190   10.382895190   10.382895190
    1.171171171   10.359384402   10.359384402   10.359384402
    1.186186186   10.335765015   10.335765015   10.335765015
    1.201201201   10.312040633   10.312040633   10.312040633
    1.216216216   10.288214811   10.288214811   10.288214811
    1.231231231   10.264291056   10.264291056   10.264291056
    1.246246246   10.240272822   10.240272822   10.240272822
    1.261261261   10.216163516   10.216163516   10.216163516
    1.276276276   10.191966495   10.191966495   10.191966495
    1.291291291   10.167685065   10.167685065   10.167685065
    1.306306306   10.143322488   10.143322488   10.143322488
    1.321321321   10.118881972   10.118881972   10.118881972
    1.336336336   10.094366681   10.094366681   10.094366681
    1.351351351   10.069779730   10.069779730   10.069779730
    1.366366366   10.045124185   10.045124185   10.045124185
    1.381381381   10.020403067   10.020403067   10.020403067
    1.396396396    9.995619348    9.995619348    9.995619348
    1.411411411    9.970775956    9.970775956    9.970775956
    1.426426426    9.945875771    9.945875771    9.945875771
    1.441441441    9.920921628    9.920921628    9.920921628
    1.456456456    9.895916316    9.895916316    9.895916316
    1.471471471    9.870862579    9.870862579    9.870862579
    1.486486486    9.845763118    9.845763118    9.845763118
    1.501501502    9.820620588    9.820620588    9.820620588
    1.516516517    9.795437600    9.795437600    9.795437600
    1.531531532    9.770216723    9.770216723    9.770216723
    1.546546547    9.744960481    9.744960481    9.744960481
    1.561561562    9.719671358    9.719671358    9.719671358
    1.576576577    9.694351794    9.694351794    9.694351794
    1.591591592    9.669004188    9.669004188    9.669004188
    1.606606607    9.643630896    9.643630896    9.643630896
    1.621621622    9.618234234    9.618234234    9.618234234
    1.636636637    9.592816479    9.592816479    9.592816479
    1.651651652    9.567379866    9.567379866    9.567379866
    1.666666667    9.541926591    9.541926591    9.541926591
    1.681681682    9.516458811    9.516458811    9.516458811
    1.696696697    9.490978643    9.490978643    9.490978643
    1.711711712    9.465488167    9.465488167    9.465488167
    1.726726727    9.439989425    9.439989425    9.439989425
    1.741741742    9.414484420    9.414484420    9.414484420
    1.756756757    9.388975119    9.388975119    9.388975119
    1.771771772    9.363463454    9.363463454    9.363463454
    1.786786787    9.337951317    9.337951317    9.337951317
    1.801801802    9.312440567    9.312440567    9.312440567
    1.816816817    9.286933028    9.286933028    9.286933028
    1.831831832    9.261430486    9.261430486    9.261430486
    1.846846847    9.235934697    9.235934697    9.235934697
    1.861861862    9.210447378    9.210447378    9.210447378
    1.876876877    9.184970217    9.184970217    9.184970217
    1.891891892    9.159504866    9.159504866    9.159504866
    1.906906907    9.134052945    9.134052945    9.134052945
    1.921921922    9.108616042    9.108616042    9.108616042
    1.936936937    9.083195711    9.083195711    9.083195711
    1.951951952    9.057793479    9.057793479    9.057793479
    1.966966967    9.032410837    9.032410837    9.032410837
    1.981981982    9.007049249    9.007049249    9.007049249
    1.996996997    8.981710146    8.981710146    8.981710146
    2.012012012    8.956394931    8.956394931    8.956394931
    2.027027027    8.931104978    8.931104978    8.931104978
    2.042042042    8.905841631    8.905841631    8.905841631
    2.057057057    8.880606204    8.880606204    8.880606204
    2.072072072    8.855399986    8.855399986    8.855399986
    2.087087087    8.830224235    8.830224235    8.830224235
    2.102102102    8.805080185    8.805080185    8.805080185
    2.117117117    8.779969040    8.779969040    8.779969040
    2.132132132    8.754891979    8.754891979    8.754891979
    2.147147147    8.729850154    8.729850154    8.729850154
    2.162162162    8.704844692    8.704844692    8.704844692
    2.177177177    8.679876695    8.679876695    8.679876695
    2.192192192    8.654947237    8.654947237    8.654947237
    2.207207207    8.630057371    8.630057371    8.630057371
    2.222222222    8.605208124    8.605208124    8.605208124
    2.237237237    8.580400499    8.580400499    8.580400499
    2.252252252    8.555635475    8.555635475    8.555635475
    2.267267267    8.530914010    8.530914010    8.530914010
    2.282282282    8.506237035    8.506237035    8.506237035
    2.297297297    8.481605464    8.481605464    8.481605464
    2.312312312    8.457020184    8.457020184    8.457020184
    2.327327327    8.432482063    8.432482063    8.432482063
    2.342342342    8.407991946    8.407991946    8.407991946
    2.357357357    8.383550658    8.383550658    8.383550658
    2.372372372    8.359159003    8.359159003    8.359159003
    2.387387387    8.334817764    8.334817764    8.334817764
    2.402402402    8.310527705    8.310527705    8.310527705
    2.417417417    8.286289569    8.286289569    8.286289569
    2.432432432    8.262104080    8.262104080    8.262104080
    2.447447447    8.237971943    8.237971943    8.237971943
    2.462462462    8.213893845    8.213893845    8.213893845
    2.477477477    8.189870452    8.189870452    8.189870452
    2.492492492    8.165902415    8.165902415    8.165902415
    2.507507508    8.141990365    8.141990365    8.141990365
    2.522522523    8.118134915    8.118134915    8.118134915
    2.537537538    8.094336663    8.094336662    8.094336662
    2.552552553    8.070596187    8.070596187    8.070596187
    2.567567568    8.046914052    8.046914052    8.046914052
    2.582582583    8.023290803    8.023290803    8.023290803
    2.597597598    7.999726971    7.999726971    7.999726971
    2.612612613    7.976223071    7.976223071    7.976223071
    2.627627628    7.952779600    7.952779600    7.952779600
    2.642642643    7.929397044    7.929397044    7.929397044
    2.657657658    7.906075870    7.906075870    7.906075870
    2.672672673    7.882816531    7.882816531    7.882816531
    2.687687688    7.859619468    7.859619468    7.859619468
    2.702702703    7.836485105    7.836485105    7.836485105
    2.717717718    7.813413854    7.813413854    7.813413854
    2.732732733    7.790406110    7.790406110    7.790406110
    2.747747748    7.767462258    7.767462258    7.767462258
    2.762762763    7.744582668    7.744582668    7.744582668
    2.777777778    7.721767698    7.721767698    7.721767698
    2.792792793    7.699017692    7.699017692    7.699017692
    2.807807808    7.676332981    7.676332981    7.676332981
    2.822822823    7.653713886    7.653713886    7.653713886
    2.837837838    7.631160713    7.631160713    7.631160713
    2.852852853    7.608673759    7.608673759    7.608673759
    2.867867868    7.586253307    7.586253307    7.586253307
    2.882882883    7.563899630    7.563899630    7.563899630
    2.897897898    7.541612989    7.541612989    7.541612989
    2.912912913    7.519393633    7.519393633    7.519393633
    2.927927928    7.497241803    7.497241803    7.497241803
    2.942942943    7.475157727    7.475157727    7.475157727
    2.957957958    7.453141623    7.453141623    7.453141623
    2.972972973    7.431193699    7.431193699    7.431193699
    2.987987988    7.409314153    7.409314153    7.409314153
    3.003003003    7.387503174    7.387503174    7.387503174
    3.018018018    7.365760940    7.365760940    7.365760940
    3.033033033    7.344087619    7.344087619    7.344087619
    3.048048048    7.322483372    7.322483372    7.322483372
    3.063063063    7.300948350    7.300948350    7.300948350
    3.078078078    7.279482693    7.279482693    7.279482693
    3.093093093    7.258086536    7.258086536    7.258086536
    3.108108108    7.236760001    7.236760001    7.236760001
    3.123123123    7.215503207    7.215503207    7.215503207
    3.138138138    7.194316259    7.194316259    7.194316259
    3.153153153    7.173199258    7.173199258    7.173199258
    3.168168168    7.152152295    7.152152295    7.152152295
    3.183183183    7.131175455    7.131175455    7.131175455
    3.198198198    7.110268814    7.110268814    7.110268814
    3.213213213    7.089432440    7.089432440    7.089432440
    3.228228228    7.068666396    7.068666396    7.068666396
    3.243243243    7.047970736    7.047970736    7.047970736
    3.258258258    7.027345507    7.027345507    7.027345507
    3.273273273    7.006790750    7.006790750    7.006790750
    3.288288288    6.986306498    6.986306498    6.986306498
    3.303303303    6.965892780    6.965892780    6.965892780
    3.318318318    6.945549616    6.945549616    6.945549616
    3.333333333    6.925277020    6.925277020    6.925277020
    3.348348348    6.905075001    6.905075001    6.905075001
    3.363363363    6.884943561    6.884943561    6.884943561
    3.378378378    6.864882697    6.864882697    6.864882697
    3.393393393    6.844892399    6.844892399    6.844892399
    3.408408408    6.824972653    6.824972653    6.824972653
    3.423423423    6.805123436    6.805123436    6.805123436
    3.438438438    6.785344725    6.785344725    6.785344725
    3.453453453    6.765636486    6.765636486    6.765636486
    3.468468468    6.745998685    6.745998685    6.745998685
    3.483483483    6.726431278    6.726431278    6.726431278
    3.498498498    6.706934220    6.706934220    6.706934220
    3.513513514    6.687507460    6.687507460    6.687507460
    3.528528529    6.668150940    6.668150940    6.668150940
    3.543543544    6.648864600    6.648864600    6.648864600
    3.558558559    6.629648375    6.629648375    6.629648375
    3.573573574    6.610502195    6.610502195    6.610502195
    3.588588589    6.591425986    6.591425986    6.591425986
    3.603603604    6.572419670    6.572419670    6.572419670
    3.618618619    6.553483163    6.553483163    6.553483163
    3.633633634    6.534616381    6.534616381    6.534616381
    3.648648649    6.515819231    6.515819231    6.515819231
    3.663663664    6.497091620    6.497091620    6.497091620
    3.678678679    6.478433449    6.478433449    6.478433449
    3.693693694    6.459844617    6.459844617    6.459844617
    3.708708709    6.441325019    6.441325019    6.441325019
    3.723723724    6.422874545    6.422874545    6.422874545
    3.738738739    6.404493084    6.404493084    6.404493084
    3.753753754    6.386180520    6.386180520    6.386180520
    3.768768769    6.367936733    6.367936733    6.367936733
    3.783783784    6.349761602    6.349761602    6.349761602
    3.798798799    6.331655002    6.331655002    6.331655002
    3.813813814    6.313616804    6.313616804    6.313616804
    3.828828829    6.295646878    6.295646878    6.295646878
    3.843843844    6.277745090    6.277745090    6.277745090
    3.858858859    6.259911302    6.259911302    6.259911302
    3.873873874    6.242145376    6.242145376    6.242145376
    3.888888889    6.224447169    6.224447169    6.224447169
    3.903903904    6.206816537    6.206816537    6.206816537
    3.918918919    6.189253332    6.189253332    6.189253332
    3.933933934    6.171757405    6.171757405    6.171757405
    3.948948949    6.154328604    6.154328604    6.154328604
    3.963963964    6.136966775    6.136966774    6.136966774
    3.978978979    6.119671760    6.119671760    6.119671760
    3.993993994    6.102443402    6.102443402    6.102443402
    4.009009009    6.085281539    6.085281539    6.085281539
    4.024024024    6.068186009    6.068186009    6.068186009
    4.039039039    6.051156647    6.051156647    6.051156647
    4.054054054    6.034193285    6.034193285    6.034193285
    4.069069069    6.017295755    6.017295755    6.017295755
    4.084084084    6.000463887    6.000463887    6.000463887
    4.099099099    5.983697507    5.983697507    5.983697507
    4.114114114    5.966996443    5.966996443    5.966996443
    4.129129129    5.950360517    5.950360517    5.950360517
    4.144144144    5.933789553    5.933789553    5.933789553
    4.159159159    5.917283373    5.917283373    5.917283373
    4.174174174    5.900841794    5.900841794    5.900841794
    4.189189189    5.884464636    5.884464636    5.884464636
    4.204204204    5.868151714    5.868151714    5.868151714
    4.219219219    5.851902845    5.851902845    5.851902845
    4.234234234    5.835717842    5.835717842    5.835717842
    4.249249249    5.819596518    5.819596518    5.819596518
    4.264264264    5.803538684    5.803538684    5.803538684
    4.279279279    5.787544151    5.787544151    5.787544151
    4.294294294    5.771612726    5.771612726    5.771612726
    4.309309309    5.755744219    5.755744219    5.755744219
    4.324324324    5.739938437    5.739938437    5.739938437
    4.339339339    5.724195184    5.724195184    5.724195184
    4.354354354    5.708514266    5.708514266    5.708514266
    4.369369369    5.692895487    5.692895487    5.692895487
    4.384384384    5.677338650    5.677338650    5.677338650
    4.399399399    5.661843556    5.661843556    5.661843556
    4.414414414    5.646410008    5.646410008    5.646410008
    4.429429429    5.631037805    5.631037805    5.631037805
    4.444444444    5.615726748    5.615726748    5.615726748
    4.459459459    5.600476635    5.600476635    5.600476635
    4.474474474    5.585287264    5.585287264    5.585287264
    4.489489489    5.570158433    5.570158433    5.570158433
    4.504504505    5.555089939    5.555089939    5.555089939
    4.519519520    5.540081579    5.540081579    5.540081579
    4.534534535    5.525133148    5.525133148    5.525133148
    4.549549550    5.510244441    5.510244441    5.510244441
    4.564564565    5.495415254    5.495415254    5.495415254
    4.579579580    5.480645380    5.480645380    5.480645380
    4.594594595    5.465934613    5.465934613    5.465934613
    4.609609610    5.451282747    5.451282747    5.451282747
    4.624624625    5.436689574    5.436689574    5.436689574
    4.639639640    5.422154887    5.422154887    5.422154887
    4.654654655    5.407678479    5.407678479    5.407678479
    4.669669670    5.393260142    5.393260142    5.393260142
    4.684684685    5.378899666    5.378899666    5.378899666
    4.699699700    5.364596844    5.364596844    5.364596844
    4.714714715    5.350351466    5.350351466    5.350351466
    4.729729730    5.336163325    5.336163325    5.336163325
    4.744744745    5.322032209    5.322032209    5.322032209
    4.759759760    5.307957910    5.307957910    5.307957910
    4.774774775    5.293940219    5.293940219    5.293940219
    4.789789790    5.279978925    5.279978925    5.279978925
    4.804804805    5.266073819    5.266073819    5.266073819
    4.819819820    5.252224691    5.252224691    5.252224691
    4.834834835    5.238431331    5.238431331    5.238431331
    4.849849850    5.224693529    5.224693529    5.224693529
    4.864864865    5.211011074    5.211011074    5.211011074
    4.879879880    5.197383758    5.197383758    5.197383758
    4.894894895    5.183811369    5.183811369    5.183811369
