# omega (eV)     <Re(Eps)>     <Im(Eps)>
0.00000000    12.16208035    0.00000000
0.01501501    12.16370067    0.01140749
0.03003003    12.16858092    0.02297334
0.04504504    12.17677959    0.03486338
0.06006006    12.18839653    0.04725904
0.07507508    12.20357654    0.06036705
0.09009009    12.22251465    0.07443149
0.10510511    12.24546335    0.08974986
0.12012012    12.27274192    0.10669506
0.13513513    12.30474808    0.12574647
0.15015015    12.34197175    0.14753510
0.16516517    12.38500977    0.17291056
0.18018018    12.43457834    0.20304271
0.19519519    12.49151437    0.23957886
0.21021021    12.55674448    0.28489139
0.22522523    12.63117045    0.34247219
0.24024024    12.71534832    0.41756036
0.25525526    12.80866809    0.51810918
0.27027027    12.90734342    0.65610596
0.28528528    12.99969904    0.84862146
0.30030030    13.05622324    1.11529133
0.31531531    13.01470326    1.46102090
0.33033033    12.78511742    1.82515749
0.34534535    12.34636836    2.03571465
0.36036036    11.87800800    1.94696516
0.37537538    11.60212432    1.65216158
0.39039039    11.54583325    1.34314044
0.40540540    11.62326687    1.11285446
0.42042042    11.76220954    0.97123846
0.43543543    11.92551311    0.90488732
0.45045045    12.09614993    0.90224318
0.46546547    12.26386848    0.95810113
0.48048048    12.41858372    1.07108022
0.49549550    12.54984888    1.24286844
0.51051051    12.63870982    1.48487997
0.52552553    12.62991090    1.80340436
0.54054054    12.43783800    2.13458993
0.55555556    12.06011367    2.30949237
0.57057057    11.68334359    2.21432625
0.58558559    11.50034864    1.96341294
0.60060060    11.51361553    1.74154805
0.61561562    11.62312371    1.63672923
0.63063063    11.72993992    1.65398837
0.64564565    11.75860096    1.74493010
0.66066066    11.69035672    1.81963332
0.67567568    11.58400590    1.81717219
0.69069069    11.49890585    1.74459779
0.70570571    11.47122648    1.62331779
0.72072072    11.52784968    1.50018807
0.73573574    11.64634168    1.43107770
0.75075075    11.77477632    1.42870396
0.76576577    11.88428716    1.46396796
0.78078078    11.99120194    1.51591242
0.79579580    12.10819568    1.61052668
0.81081081    12.19620928    1.77532897
0.82582583    12.19720668    1.98277040
0.84084084    12.10016331    2.16211739
0.85585586    11.94758112    2.26502449
0.87087087    11.79577180    2.27791420
0.88588589    11.70653790    2.23610943
0.90090090    11.67317372    2.22021873
0.91591592    11.61736131    2.24395883
0.93093093    11.51302338    2.23676053
0.94594595    11.41679915    2.16408900
0.96096096    11.36237346    2.05550338
0.97597598    11.35032454    1.92521966
0.99099099    11.39905420    1.78387387
1.00600601    11.51527556    1.67210838
1.02102102    11.66390664    1.62067340
1.03603604    11.80915804    1.61603821
1.05105105    11.95488009    1.63730741
1.06606607    12.11008516    1.69890614
1.08108108    12.25003322    1.81612756
1.09609610    12.34979131    1.97366108
1.11111111    12.40575455    2.15904983
1.12612613    12.39712998    2.36892997
1.14114114    12.29973201    2.56091658
1.15615616    12.13991129    2.68431349
1.17117117    11.96114136    2.72574190
1.18618619    11.79886198    2.69289645
1.20120120    11.66900336    2.60303727
1.21621622    11.58994025    2.45281997
1.23123123    11.61332341    2.27052570
1.24624625    11.74338096    2.14067503
1.26126126    11.90915105    2.11741262
1.27627628    12.02872323    2.18146663
1.29129129    12.06537443    2.26529604
1.30630631    12.03849381    2.30165642
1.32132132    12.00969367    2.25313676
1.33633634    12.05295665    2.14499112
1.35135135    12.19136015    2.04781018
1.36636637    12.39442505    2.01378145
1.38138138    12.62490473    2.05801004
1.39639640    12.85818050    2.19144050
1.41141141    13.04958332    2.42975142
1.42642643    13.13001444    2.75128302
1.44144144    13.05217717    3.07994994
1.45645646    12.83077514    3.31429795
1.47147147    12.55347457    3.38446326
1.48648649    12.32699701    3.30487610
1.50150150    12.20615902    3.14515107
1.51651652    12.19282009    2.96959855
1.53153153    12.26959632    2.82626143
1.54654655    12.39054579    2.75351014
1.56156156    12.48938226    2.73379018
1.57657658    12.55767818    2.69965923
1.59159159    12.65324883    2.62348442
1.60660661    12.82415782    2.54540656
1.62162162    13.06062536    2.52766926
1.63663664    13.30998927    2.59176563
1.65165165    13.54607105    2.71341940
1.66666667    13.77995685    2.89636966
1.68168168    13.97917826    3.17903610
1.69669670    14.06007030    3.55000613
1.71171171    13.96006396    3.92162629
1.72672673    13.69537765    4.16113172
1.74174174    13.39987287    4.17535261
1.75675676    13.23359214    4.02049650
1.77177177    13.23990179    3.83611690
1.78678679    13.35604404    3.71896746
1.80180180    13.49363919    3.67191354
1.81681682    13.62980118    3.63782225
1.83183183    13.80483180    3.59785149
1.84684685    14.04410875    3.58488328
1.86186186    14.33867438    3.63865915
1.87687688    14.66001503    3.78892040
1.89189189    14.96374167    4.05496045
1.90690691    15.18552917    4.43284039
1.92192192    15.25580372    4.87029888
1.93693694    15.14855948    5.25457203
1.95195195    14.94393137    5.47023659
1.96696697    14.78332832    5.50675273
1.98198198    14.75783211    5.44081162
1.99699700    14.89977585    5.37335399
2.01201201    15.17064959    5.41094771
2.02702703    15.46518958    5.59365951
2.04204204    15.70791154    5.86402616
2.05705706    15.92078752    6.16222681
2.07207207    16.13585528    6.51030026
2.08708709    16.32137489    6.92988581
2.10210210    16.46236563    7.39559381
2.11711712    16.57699826    7.91719953
2.13213213    16.63021309    8.53294621
2.14714715    16.55250001    9.22050949
2.16216216    16.31933355    9.92189354
2.17717718    15.91841764    10.59011335
2.19219219    15.35244467    11.14516407
2.20720721    14.69276979    11.51567240
2.22222222    14.03467005    11.69399829
2.23723724    13.45189906    11.72185240
2.25225225    12.97474973    11.66272894
2.26726727    12.60176033    11.56002712
2.28228228    12.34680014    11.45006295
2.29729730    12.20464024    11.41455254
2.31231231    12.08157246    11.52764307
2.32732733    11.83169847    11.75752337
2.34234234    11.38459983    11.94020063
2.35735736    10.85642491    11.92168034
2.37237237    10.41562738    11.72888450
2.38738739    10.11390780    11.46609189
2.40240240    9.94729071    11.20552624
2.41741742    9.88451647    11.01139885
2.43243243    9.86374257    10.90996907
2.44744745    9.83989665    10.88503482
2.46246246    9.80390228    10.92839768
2.47747748    9.71225718    11.06356334
2.49249249    9.47002755    11.24249337
2.50750751    9.06361279    11.31847472
2.52252252    8.61993681    11.19653165
2.53753754    8.26447239    10.91532843
2.55255255    8.05086137    10.54687514
2.56756757    8.00884183    10.17065654
2.58258258    8.11124983    9.88765447
2.59759760    8.26985305    9.74515421
2.61261261    8.41100318    9.73305578
2.62762763    8.47016810    9.82024160
2.64264264    8.40647832    9.92530304
2.65765766    8.26358827    9.96018655
2.67267267    8.13041565    9.91936958
2.68768769    8.03903730    9.86422456
2.70270270    7.95647784    9.83035545
2.71771772    7.84847487    9.80518851
2.73273273    7.70866115    9.75156171
2.74774775    7.57137540    9.64366068
2.76276276    7.47324603    9.49502023
2.77777778    7.43375031    9.33498335
2.79279279    7.44699466    9.20743626
2.80780781    7.46718906    9.13282351
2.82282282    7.45921835    9.08139940
2.83783784    7.43164986    9.01985813
2.85285285    7.40476070    8.93916843
2.86786787    7.39780245    8.84110038
2.88288288    7.43024039    8.74456737
2.89789790    7.49660864    8.68670435
2.91291291    7.55592645    8.68561482
2.92792793    7.56854702    8.71310492
2.94294294    7.54358925    8.72435449
2.95795796    7.51340372    8.71697169
2.97297297    7.48069154    8.70851415
2.98798799    7.42970501    8.70035705
3.00300300    7.35055600    8.66871160
3.01801802    7.26612336    8.58546063
3.03303303    7.21891188    8.45186076
3.04804805    7.23933105    8.30581397
3.06306306    7.31468119    8.19693327
3.07807808    7.40069106    8.14364179
3.09309309    7.45874183    8.12441492
3.10810811    7.48561841    8.09614223
3.12312312    7.51954639    8.03734002
3.13813814    7.59351645    7.97767386
3.15315315    7.69095676    7.95379612
3.16816817    7.78363706    7.96597745
3.18318318    7.86200680    8.00556250
3.19819820    7.91687175    8.07494037
3.21321321    7.91586317    8.16768527
3.22822823    7.83390651    8.22744450
3.24324324    7.72071555    8.18413732
3.25825826    7.67486118    8.04952735
3.27327327    7.72755347    7.91413150
3.28828829    7.82619921    7.82723473
3.30330330    7.93547710    7.77807825
3.31831832    8.04266594    7.75908875
3.33333333    8.13710509    7.75534424
3.34834835    8.22613485    7.75642904
3.36336336    8.30866371    7.76324643
3.37837838    8.38555980    7.76412628
3.39339339    8.47078762    7.75657597
3.40840841    8.57691827    7.74831478
3.42342342    8.70786745    7.76766035
3.43843844    8.82086291    7.83362391
3.45345345    8.87970005    7.89929075
3.46846847    8.92103513    7.91392820
3.48348348    8.99894300    7.89393402
3.49849850    9.11655989    7.87992788
3.51351351    9.25987489    7.88315777
3.52852853    9.42462827    7.91833857
3.54354354    9.57582453    7.99856547
3.55855856    9.68124608    8.08188280
3.57357357    9.77647851    8.12345944
3.58858859    9.90619130    8.14287129
3.60360360    10.06816284    8.17050979
3.61861862    10.25370933    8.21357779
3.63363363    10.45636973    8.28271947
3.64864865    10.65064540    8.37705739
3.66366366    10.82884635    8.45575286
3.67867868    11.04465173    8.49341825
3.69369369    11.34921607    8.53845646
3.70870871    11.72508809    8.65574499
3.72372372    12.12481550    8.86509248
3.73873874    12.51323119    9.15585387
3.75375375    12.87778879    9.49884759
3.76876877    13.24988800    9.88203799
3.78378378    13.64519779    10.36006900
3.79879880    13.99472978    10.97984427
3.81381381    14.21440815    11.70115676
3.82882883    14.28585818    12.44017427
3.84384384    14.24814535    13.13931332
3.85885886    14.15405034    13.78859563
3.87387387    14.03003246    14.41666506
3.88888889    13.85604386    15.04111083
3.90390390    13.61836233    15.63197164
3.91891892    13.35395034    16.16499865
3.93393393    13.09539153    16.66896436
3.94894895    12.82937738    17.16954876
3.96396396    12.54689478    17.66481457
3.97897898    12.24480316    18.16057635
3.99399399    11.90818035    18.65472860
4.00900901    11.52790397    19.12857533
4.02402402    11.11441778    19.55011662
4.03903904    10.72163358    19.89926906
4.05405405    10.41565158    20.22530827
4.06906907    10.19198017    20.62150771
4.08408408    9.98231618    21.13879732
4.09909910    9.72957669    21.76736436
4.11411411    9.42608629    22.51069476
4.12912913    9.01665007    23.43244141
4.14414414    8.34249672    24.52994375
4.15915916    7.27821884    25.65844245
4.17417417    5.81137681    26.65332672
4.18918919    3.94804356    27.35446956
4.20420420    1.79611828    27.52792155
4.21921922    -0.33279550    27.04107349
4.23423423    -2.10566366    26.02721741
4.24924925    -3.39087407    24.79273175
4.26426426    -4.30675119    23.59175059
4.27927928    -5.05772728    22.44234501
4.29429429    -5.65637915    21.20178031
4.30930931    -5.92171312    19.89376694
4.32432432    -5.81665687    18.76256667
4.33933934    -5.53692601    17.97122733
4.35435435    -5.29506100    17.49231049
4.36936937    -5.22098434    17.21228372
4.38438438    -5.37683943    16.97649032
4.39939940    -5.72016598    16.59751751
4.41441441    -6.05718009    15.95951636
4.42942943    -6.17133919    15.16236502
4.44444444    -6.03886872    14.40965579
4.45945946    -5.75340828    13.79926101
4.47447447    -5.39296275    13.36511573
4.48948949    -5.04789333    13.11735766
4.50450450    -4.80369346    13.00651240
4.51951952    -4.69033480    12.95149650
4.53453453    -4.70164983    12.89051169
4.54954955    -4.82656592    12.75980439
4.56456457    -5.00724485    12.47888574
4.57957958    -5.10867519    12.01946163
4.59459460    -5.00117430    11.48328882
4.60960961    -4.68244312    11.03528630
4.62462463    -4.25551790    10.77580284
4.63963964    -3.83663567    10.71196273
4.65465465    -3.50071034    10.79922950
4.66966967    -3.28923644    10.98696692
4.68468468    -3.22885894    11.21241416
4.69969970    -3.30414911    11.40155526
4.71471472    -3.45904625    11.52139370
4.72972973    -3.66370655    11.58929729
4.74474475    -3.93726535    11.60518385
4.75975976    -4.28744101    11.51026479
4.77477478    -4.64136431    11.23434670
4.78978979    -4.86983385    10.79632794
4.80480480    -4.90457582    10.31332032
4.81981982    -4.78189503    9.89855629
4.83483483    -4.58419518    9.59528140
4.84984985    -4.37325491    9.38724889
4.86486487    -4.17051693    9.24627020
4.87987988    -3.97930884    9.15966597
4.89489490    -3.80679514    9.12630617
4.90990991    -3.66793212    9.14272973
4.92492493    -3.57711558    9.19725514
4.93993994    -3.54270089    9.27695331
4.95495495    -3.57731713    9.37115992
4.96996997    -3.70204427    9.45453083
4.98498498    -3.92306360    9.47183956
5.00000000    -4.19533306    9.36220771
5.01501502    -4.43704959    9.11350655
5.03003003    -4.58412471    8.76630873
5.04504505    -4.60937680    8.38047769
5.06006006    -4.51966908    8.01556866
5.07507507    -4.35099633    7.71152954
5.09009009    -4.14509618    7.47408252
5.10510510    -3.92261197    7.28888447
5.12012012    -3.68522517    7.14732101
5.13513513    -3.42919119    7.05390307
5.15015015    -3.16105029    7.03021702
5.16516517    -2.91778306    7.09142074
5.18018018    -2.74093496    7.21670944
5.19519520    -2.64677614    7.36699831
5.21021021    -2.62899932    7.50888624
5.22522522    -2.67677891    7.62216643
5.24024024    -2.78102079    7.68284648
5.25525525    -2.91211922    7.66265492
5.27027027    -3.01841591    7.56270496
5.28528528    -3.07398078    7.42208686
5.30030030    -3.08953058    7.26140491
5.31531532    -3.05746724    7.07950968
5.33033033    -2.96163204    6.90002497
5.34534535    -2.81305532    6.75204638
5.36036036    -2.63035857    6.64551016
5.37537537    -2.42542199    6.58370539
5.39039039    -2.20734013    6.56953016
5.40540540    -1.98334826    6.60903247
5.42042042    -1.77055674    6.71410578
5.43543543    -1.60323556    6.88239572
5.45045045    -1.50892803    7.08140487
5.46546547    -1.48075259    7.26830367
5.48048048    -1.48781823    7.42695117
5.49549550    -1.51331466    7.56599910
5.51051051    -1.55769268    7.68711926
5.52552553    -1.61172466    7.77842109
5.54054054    -1.64740831    7.84347184
5.55555556    -1.64962203    7.91240234
5.57057057    -1.62899192    8.01642213
5.58558559    -1.61295130    8.17554130
5.60060060    -1.63718149    8.38868783
5.61561562    -1.72636187    8.64001721
5.63063063    -1.90679585    8.91360663
5.64564565    -2.21107845    9.16376529
5.66066066    -2.62819352    9.31089404
5.67567568    -3.08322657    9.30226790
5.69069069    -3.49209088    9.15474257
5.70570571    -3.81352922    8.92081438
5.72072072    -4.03888242    8.64886311
5.73573574    -4.17719701    8.38250817
5.75075075    -4.26328348    8.15225137
5.76576577    -4.33638028    7.94867203
5.78078078    -4.40046960    7.74520118
5.79579580    -4.44111795    7.53659324
5.81081081    -4.45139022    7.32949665
5.82582583    -4.42678379    7.13221368
5.84084084    -4.36714781    6.96078678
5.85585586    -4.28767181    6.83003583
5.87087087    -4.20723711    6.73927580
5.88588589    -4.13652636    6.68351777
5.90090090    -4.08842919    6.65841916
5.91591592    -4.07676243    6.64833332
5.93093093    -4.10011712    6.62801011
5.94594595    -4.13802491    6.58290453
5.96096096    -4.17205259    6.52029261
5.97597598    -4.20059910    6.45065713
5.99099099    -4.22369576    6.37590584
6.00600601    -4.23857499    6.30261739
6.02102102    -4.25441821    6.23965410
6.03603604    -4.28700391    6.17934583
6.05105105    -4.33701862    6.09966155
6.06606607    -4.38172169    5.98513349
6.08108108    -4.39248521    5.84988524
6.09609610    -4.36962802    5.72441638
6.11111111    -4.33354467    5.61664502
6.12612613    -4.28830061    5.51795699
6.14114114    -4.22810837    5.43457289
6.15615616    -4.16352230    5.37771864
6.17117117    -4.10895834    5.34361618
6.18618619    -4.07028152    5.32490446
6.20120120    -4.05393804    5.31518980
6.21621622    -4.06457060    5.29861761
6.23123123    -4.08839910    5.25661118
6.24624625    -4.10005917    5.19244828
6.26126126    -4.09217845    5.12838259
6.27627628    -4.07809730    5.07716945
6.29129129    -4.07032154    5.03495421
6.30630631    -4.07178924    4.99330868
6.32132132    -4.08005780    4.94747793
6.33633634    -4.09469433    4.89468199
6.35135135    -4.11212072    4.82719223
6.36636637    -4.11811848    4.74350490
6.38138138    -4.10411128    4.65820936
6.39639640    -4.07955594    4.58264837
6.41141141    -4.05243215    4.51305847
6.42642643    -4.02087374    4.44650202
6.44144144    -3.98384820    4.38634444
6.45645646    -3.94583155    4.33471324
6.47147147    -3.90966167    4.28831519
6.48648649    -3.87383685    4.24529343
6.50150150    -3.83689807    4.20641526
6.51651652    -3.79888380    4.17475452
6.53153153    -3.76358901    4.15227200
6.54654655    -3.73383221    4.13902288
6.56156156    -3.71619108    4.13703964
6.57657658    -3.72330860    4.13783750
6.59159159    -3.75414179    4.11986370
6.60660661    -3.78818396    4.07176381
6.62162162    -3.80702236    4.00348969
6.63663664    -3.80999120    3.92965753
6.65165165    -3.80235409    3.85304919
6.66666667    -3.78183489    3.77354212
6.68168168    -3.74611515    3.69674762
6.69669670    -3.69712735    3.62840245
6.71171171    -3.63849575    3.57260084
6.72672673    -3.57446604    3.53177305
6.74174174    -3.50958134    3.50824895
6.75675676    -3.45128600    3.50277137
6.77177177    -3.40677231    3.51138780
6.78678679    -3.38052953    3.52795209
6.80180180    -3.37505520    3.54544287
6.81681682    -3.39153736    3.55493305
6.83183183    -3.42565573    3.54397993
6.84684685    -3.46273277    3.50428335
6.86186186    -3.48619081    3.44062909
6.87687688    -3.48814656    3.36534850
6.89189189    -3.46900889    3.28986742
6.90690691    -3.43240187    3.22113439
6.92192192    -3.38128440    3.16575188
6.93693694    -3.32503737    3.13150701
6.95195195    -3.27893805    3.11493827
6.96696697    -3.24769139    3.10160259
6.98198198    -3.22249964    3.08250344
6.99699700    -3.19432501    3.06225777
7.01201201    -3.16678073    3.04937403
7.02702703    -3.14958543    3.04151812
7.04204204    -3.14536653    3.02816615
7.05705706    -3.14744093    2.99916213
7.07207207    -3.14098585    2.95142263
7.08708709    -3.11153669    2.89629015
7.10210210    -3.05882953    2.85369703
7.11711712    -2.99762945    2.83682944
7.13213213    -2.94633893    2.84372217
7.14714715    -2.91393088    2.86178900
7.16216216    -2.89852978    2.88101912
7.17717718    -2.89764903    2.89795670
7.19219219    -2.91197662    2.90868797
7.20720721    -2.94006746    2.90553116
7.22222222    -2.97457801    2.88158156
7.23723724    -3.00498636    2.83455291
7.25225225    -3.01923288    2.76780713
7.26726727    -3.00868338    2.69307734
7.28228228    -2.97500626    2.62417813
7.29729730    -2.92582498    2.56859871
7.31231231    -2.86796477    2.52927243
7.32732733    -2.80925109    2.50765182
7.34234234    -2.75776556    2.49897866
7.35735736    -2.71385286    2.49499984
7.37237237    -2.67177302    2.49347479
7.38738739    -2.62904030    2.49983698
7.40240240    -2.59128343    2.51930240
7.41741742    -2.56778556    2.55091485
7.43243243    -2.56687613    2.58626701
7.44744745    -2.58863771    2.61120243
7.46246246    -2.62343247    2.61593136
