# omega (eV)     <Re(Eps)>     <Im(Eps)>
0.00000000    11.56337069    0.00000000
0.01501501    11.56358863    0.00145445
0.03003003    11.56424258    0.00290967
0.04504504    11.56533288    0.00436645
0.06006006    11.56686010    0.00582558
0.07507508    11.56882507    0.00728783
0.09009009    11.57122883    0.00875401
0.10510511    11.57407267    0.01022493
0.12012012    11.57735811    0.01170140
0.13513513    11.58108694    0.01318428
0.15015015    11.58526118    0.01467440
0.16516517    11.58988312    0.01617266
0.18018018    11.59495531    0.01767994
0.19519519    11.60048055    0.01919717
0.21021021    11.60646196    0.02072531
0.22522523    11.61290290    0.02226535
0.24024024    11.61980707    0.02381831
0.25525526    11.62717846    0.02538526
0.27027027    11.63502137    0.02696731
0.28528528    11.64334046    0.02856561
0.30030030    11.65214073    0.03018140
0.31531531    11.66142754    0.03181594
0.33033033    11.67120664    0.03347060
0.34534535    11.68148420    0.03514677
0.36036036    11.69226681    0.03684599
0.37537538    11.70356151    0.03856984
0.39039039    11.71537584    0.04032002
0.40540540    11.72771782    0.04209836
0.42042042    11.74059607    0.04390680
0.43543543    11.75401975    0.04574742
0.45045045    11.76799867    0.04762247
0.46546547    11.78254332    0.04953439
0.48048048    11.79766493    0.05148578
0.49549550    11.81337549    0.05347951
0.51051051    11.82968788    0.05551869
0.52552553    11.84661589    0.05760671
0.54054054    11.86417435    0.05974730
0.55555556    11.88237919    0.06194457
0.57057057    11.90124758    0.06420306
0.58558559    11.92079805    0.06652780
0.60060060    11.94105061    0.06892441
0.61561562    11.96202695    0.07139917
0.63063063    11.98375062    0.07395913
0.64564565    12.00624725    0.07661229
0.66066066    12.02954481    0.07936770
0.67567568    12.05367392    0.08223571
0.69069069    12.07866821    0.08522820
0.70570571    12.10456473    0.08835890
0.72072072    12.13140447    0.09164379
0.73573574    12.15923296    0.09510159
0.75075075    12.18810096    0.09875439
0.76576577    12.21806538    0.10262849
0.78078078    12.24919030    0.10675549
0.79579580    12.28154824    0.11117369
0.81081081    12.31522176    0.11593006
0.82582583    12.35030538    0.12108278
0.84084084    12.38690790    0.12670488
0.85585586    12.42515525    0.13288931
0.87087087    12.46519395    0.13975607
0.88588589    12.50719510    0.14746268
0.90090090    12.55135865    0.15621961
0.91591592    12.59791753    0.16631358
0.93093093    12.64713939    0.17814336
0.94594595    12.69932163    0.19227579
0.96096096    12.75476835    0.20953444
0.97597598    12.81372222    0.23113974
0.99099099    12.87618657    0.25892298
1.00600601    12.94148578    0.29561331
1.02102102    13.00723576    0.34504706
1.03603604    13.06720609    0.41153696
1.05105105    13.10834736    0.49592153
1.06606607    13.11289334    0.58475705
1.08108108    13.08005095    0.64329563
1.09609610    13.04873354    0.64821181
1.11111111    13.05805332    0.62506159
1.12612613    13.10446447    0.61178248
1.14114114    13.16473910    0.61975511
1.15615616    13.22782023    0.64018178
1.17117117    13.30038656    0.67048697
1.18618619    13.38390258    0.72595275
1.20120120    13.45916633    0.82243572
1.21621622    13.49034392    0.95729735
1.23123123    13.44317333    1.09033062
1.24624625    13.33417306    1.15011601
1.26126126    13.24662605    1.11141950
1.27627628    13.24048061    1.03453432
1.29129129    13.29868832    0.98777963
1.30630631    13.37073772    0.99255134
1.32132132    13.41655878    1.02680033
1.33633634    13.43551511    1.05018739
1.35135135    13.45817177    1.05226061
1.36636637    13.49343187    1.05030635
1.38138138    13.53608395    1.04410119
1.39639640    13.59891899    1.03484116
1.41141141    13.68229140    1.04528645
1.42642643    13.76033678    1.08229748
1.44144144    13.82132064    1.12113268
1.45645646    13.89119122    1.14886410
1.47147147    13.98707479    1.19579870
1.48648649    14.08032319    1.29312450
1.50150150    14.12164622    1.43084519
1.51651652    14.08597903    1.55493112
1.53153153    14.00645125    1.60484141
1.54654655    13.95992400    1.57388909
1.56156156    13.99146680    1.52803112
1.57657658    14.06601690    1.53371144
1.59159159    14.11502722    1.59249121
1.60660661    14.10645826    1.64909352
1.62162162    14.06999741    1.65612991
1.63663664    14.04600233    1.61078167
1.65165165    14.06346123    1.52571853
1.66666667    14.14164417    1.43538831
1.68168168    14.26035851    1.37484492
1.69669670    14.38994765    1.33866145
1.71171171    14.53621045    1.30833908
1.72672673    14.71846798    1.29723122
1.74174174    14.92919897    1.33509169
1.75675676    15.13920079    1.43709181
1.77177177    15.31599864    1.59641964
1.78678679    15.44102327    1.79046075
1.80180180    15.50813040    2.00307761
1.81681682    15.49866066    2.21388290
1.83183183    15.41065799    2.36962130
1.84684685    15.29604193    2.42555258
1.86186186    15.22296174    2.39679212
1.87687688    15.21486566    2.33388188
1.89189189    15.26091642    2.27183641
1.90690691    15.33955035    2.22629435
1.92192192    15.43394603    2.19283898
1.93693694    15.54065133    2.16194153
1.95195195    15.66991795    2.12653615
1.96696697    15.83725913    2.10197551
1.98198198    16.02868324    2.11634867
1.99699700    16.20599214    2.16349713
2.01201201    16.36689910    2.19882841
2.02702703    16.55958471    2.20863075
2.04204204    16.81868565    2.23340738
2.05705706    17.13508684    2.32864250
2.07207207    17.46081917    2.53484292
2.08708709    17.72109653    2.85706290
2.10210210    17.83510345    3.23946145
2.11711712    17.78524486    3.55540519
2.13213213    17.67602133    3.70691906
2.14714715    17.63439156    3.72264900
2.16216216    17.70330012    3.69220254
2.17717718    17.85511415    3.67738851
2.19219219    18.05392658    3.68233671
2.20720721    18.30565458    3.69252218
2.22222222    18.63595564    3.72716575
2.23723724    19.04357542    3.82918879
2.25225225    19.50276420    4.02872184
2.26726727    19.98462085    4.34522645
2.28228228    20.44614127    4.79201461
2.29729730    20.83403933    5.34992790
2.31231231    21.12964841    5.96383722
2.32732733    21.36798195    6.60512101
2.34234234    21.56936623    7.29959120
2.35735736    21.71502647    8.07559145
2.37237237    21.76393310    8.95520510
2.38738739    21.62868428    9.93215486
2.40240240    21.22623322    10.89886035
2.41741742    20.59554612    11.70151594
2.43243243    19.87058843    12.27555630
2.44744745    19.15745976    12.66762045
2.46246246    18.47088033    12.94007119
2.47747748    17.80449147    13.09283577
2.49249249    17.20097134    13.11596867
2.50750751    16.71944174    13.04520582
2.52252252    16.39065000    12.96054008
2.53753754    16.18588039    12.95543383
2.55255255    16.01792484    13.09383216
2.56756757    15.75885301    13.36953156
2.58258258    15.31551002    13.66772822
2.59759760    14.72315619    13.85259214
2.61261261    14.06704881    13.88200723
2.62762763    13.38495271    13.73651208
2.64264264    12.76095860    13.35170936
2.65765766    12.37743773    12.76768982
2.67267267    12.31770271    12.18613890
2.68768769    12.48899716    11.78297052
2.70270270    12.73968845    11.61233261
2.71771772    12.94969003    11.63443218
2.73273273    13.07186021    11.77568345
2.74774775    13.09874191    12.00086978
2.76276276    12.98958145    12.28291502
2.77777778    12.71657092    12.53436899
2.79279279    12.33782293    12.66950287
2.80780781    11.93254341    12.68414505
2.82282282    11.52512713    12.59815265
2.83783784    11.13638961    12.39350208
2.85285285    10.83490089    12.06715129
2.86786787    10.68219634    11.68085437
2.88288288    10.68241021    11.32089804
2.89789790    10.78734121    11.05509524
2.91291291    10.92245435    10.89637230
2.92792793    11.05065407    10.81336499
2.94294294    11.16134115    10.79730236
2.95795796    11.21854263    10.83256938
2.97297297    11.21430626    10.86134060
2.98798799    11.19902501    10.84992622
3.00300300    11.22668291    10.82621480
3.01801802    11.30130114    10.86675467
3.03303303    11.32784750    11.02169474
3.04804805    11.20552942    11.20541063
3.06306306    10.97385324    11.29483553
3.07807808    10.72510888    11.27687998
3.09309309    10.48506881    11.17860362
3.10810811    10.27398651    10.98654741
3.12312312    10.15781410    10.71276559
3.13813814    10.17581267    10.44017792
3.15315315    10.27438069    10.25893338
3.16816817    10.34038217    10.16243233
3.18318318    10.34308750    10.03762142
3.19819820    10.38325539    9.82625235
3.21321321    10.54426229    9.59945670
3.22822823    10.80527587    9.44908910
3.24324324    11.10645602    9.40040049
3.25825826    11.41903241    9.45556395
3.27327327    11.70193291    9.62926652
3.28828829    11.89894401    9.90418861
3.30330330    11.97041503    10.24201547
3.31831832    11.87981344    10.58742980
3.33333333    11.62200437    10.84493955
3.34834835    11.26496744    10.92530486
3.36336336    10.91683474    10.79505517
3.37837838    10.69619005    10.48536318
3.39339339    10.68339125    10.10871623
3.40840841    10.84803083    9.80127387
3.42342342    11.08301433    9.61094756
3.43843844    11.32363230    9.49616775
3.45345345    11.56816838    9.42454156
3.46846847    11.81587713    9.38227729
3.48348348    12.08903706    9.35687715
3.49849850    12.40641716    9.38756029
3.51351351    12.72289416    9.50872663
3.52852853    12.99331501    9.69716037
3.54354354    13.20615488    9.92466892
3.55855856    13.34918385    10.16421187
3.57357357    13.43432671    10.37052614
3.58858859    13.50693900    10.53341121
3.60360360    13.57493760    10.66978727
3.61861862    13.64859514    10.75650358
3.63363363    13.78311996    10.80400721
3.64864865    13.99076614    10.86730584
3.66366366    14.25430594    10.97393042
3.67867868    14.56158179    11.15172357
3.69369369    14.87056726    11.42324142
3.70870871    15.13668802    11.77016648
3.72372372    15.34677592    12.15272244
3.73873874    15.52752363    12.54612042
3.75375375    15.70450355    12.97856257
3.76876877    15.84065216    13.49263620
3.78378378    15.86036578    14.06352899
3.79879880    15.74736006    14.60125845
3.81381381    15.56358750    15.04958515
3.82882883    15.36836571    15.42170625
3.84384384    15.17615356    15.74354317
3.85885886    14.99623076    16.02211560
3.87387387    14.84202874    16.27695954
3.88888889    14.70185224    16.53197337
3.90390390    14.54831865    16.78038459
3.91891892    14.39001756    16.98295510
3.93393393    14.28568560    17.14382430
3.94894895    14.24645354    17.32919199
3.96396396    14.22416196    17.56100942
3.97897898    14.20951189    17.82358454
3.99399399    14.19748605    18.14477610
4.00900901    14.11939451    18.52983563
4.02402402    13.93038655    18.89466396
4.03903904    13.68623534    19.15029237
4.05405405    13.48646534    19.29031282
4.06906907    13.39195262    19.36752769
4.08408408    13.43078532    19.44458103
4.09909910    13.59424048    19.60134097
4.11411411    13.81987785    19.88716908
4.12912913    14.05255775    20.29387651
4.14414414    14.27564315    20.80824604
4.15915916    14.47048767    21.43525473
4.17417417    14.61240789    22.16461127
4.18918919    14.69843005    22.99071199
4.20420420    14.70782726    23.93276925
4.21921922    14.58211707    24.98314352
4.23423423    14.29074805    26.07065701
4.24924925    13.89446116    27.14638390
4.26426426    13.44988046    28.26873894
4.27927928    12.91626071    29.53494373
4.29429429    12.15587878    30.99583811
4.30930931    10.98985123    32.58235516
4.32432432    9.29787683    34.11027768
4.33933934    7.05682652    35.33447079
4.35435435    4.37543811    35.96541878
4.36936937    1.59702719    35.77842881
4.38438438    -0.82382785    34.88176285
4.39939940    -2.68879054    33.65015811
4.41441441    -4.08659657    32.40349119
4.42942943    -5.25005783    31.29855371
4.44444444    -6.44375098    30.24098477
4.45945946    -7.67643811    28.91608059
4.47447447    -8.59874217    27.18983828
4.48948949    -8.90052503    25.34017696
4.50450450    -8.62507354    23.78051315
4.51951952    -8.07420997    22.73319684
4.53453453    -7.54742439    22.17102043
4.54954955    -7.22255852    21.97135151
4.56456457    -7.23289045    22.00227026
4.57957958    -7.69625123    22.04657231
4.59459460    -8.58211833    21.75795808
4.60960961    -9.54017453    20.84000120
4.62462463    -10.05353490    19.40339856
4.63963964    -9.92145489    17.91183306
4.65465465    -9.32872449    16.72537549
4.66966967    -8.54767606    15.94045332
4.68468468    -7.75799358    15.50515650
4.69969970    -7.04767421    15.35386990
4.71471472    -6.48309507    15.43998179
4.72972973    -6.13758874    15.70309858
4.74474475    -6.06429874    16.04489427
4.75975976    -6.27363244    16.35471086
4.77477478    -6.75086706    16.51726980
4.78978979    -7.42986609    16.38269990
4.80480480    -8.10168594    15.82518319
4.81981982    -8.47005464    14.93470561
4.83483483    -8.43164495    14.00845431
4.84984985    -8.12893875    13.25277452
4.86486487    -7.71882147    12.68664179
4.87987988    -7.26585135    12.27395977
4.89489490    -6.80559297    12.00715807
4.90990991    -6.39109745    11.86325113
4.92492493    -6.03607642    11.78461143
4.93993994    -5.70649809    11.75394784
4.95495495    -5.39900433    11.80256819
4.96996997    -5.15522703    11.94887570
4.98498498    -5.03191770    12.17614357
5.00000000    -5.07886941    12.42735630
5.01501502    -5.30904725    12.61026374
5.03003003    -5.67884997    12.62723213
5.04504505    -6.08323629    12.40171810
5.06006006    -6.35345624    11.94440509
5.07507507    -6.37967083    11.40938187
5.09009009    -6.21670076    10.95546623
5.10510510    -5.97897812    10.61663709
5.12012012    -5.71361018    10.35149486
5.13513513    -5.40748347    10.15191122
5.15015015    -5.07594949    10.05514409
5.16516517    -4.78227562    10.06737780
5.18018018    -4.56919582    10.13696547
5.19519520    -4.42158655    10.20866266
5.21021021    -4.29591867    10.27046982
5.22522522    -4.16958345    10.35458915
5.24024024    -4.06800717    10.49616189
5.25525525    -4.04203414    10.69280552
5.27027027    -4.13175594    10.90383111
5.28528528    -4.34743893    11.06534471
5.30030030    -4.65951108    11.11301461
5.31531532    -5.00628392    11.00278115
5.33033033    -5.30211648    10.72434097
5.34534535    -5.45432166    10.32524988
5.36036036    -5.42300744    9.91771666
5.37537537    -5.26627373    9.60236237
5.39039039    -5.07578756    9.39139673
5.40540540    -4.89094100    9.24558101
5.42042042    -4.71278064    9.14653400
5.43543543    -4.55446894    9.09060992
5.45045045    -4.43049597    9.05338189
5.46546547    -4.32511860    9.00716718
5.48048048    -4.20922534    8.95442852
5.49549550    -4.07593810    8.91941687
5.51051051    -3.93983941    8.91425513
5.52552553    -3.81379049    8.93988504
5.54054054    -3.71471960    8.98756390
5.55555556    -3.63729408    9.03180003
5.57057057    -3.55413921    9.08177984
5.58558559    -3.48061271    9.16863972
5.60060060    -3.45640993    9.28379426
5.61561562    -3.49960329    9.38532274
5.63063063    -3.58798459    9.42216797
5.64564565    -3.65505736    9.37480779
5.66066066    -3.64023991    9.29425997
5.67567568    -3.55830906    9.25400913
5.69069069    -3.46159850    9.26769510
5.70570571    -3.36180361    9.31488028
5.72072072    -3.24953861    9.40826047
5.73573574    -3.15179081    9.57430722
5.75075075    -3.11394705    9.80205078
5.76576577    -3.15271576    10.05384873
5.78078078    -3.25725682    10.30938931
5.79579580    -3.43161311    10.57040630
5.81081081    -3.70214910    10.81859899
5.82582583    -4.07705516    11.00251484
5.84084084    -4.52379416    11.06927941
5.85585586    -4.97963403    10.99276496
5.87087087    -5.37401431    10.79346065
5.88588589    -5.67405482    10.53119269
5.90090090    -5.89179692    10.25421893
5.91591592    -6.05024703    9.98575028
5.93093093    -6.17323684    9.73385811
5.94594595    -6.28347171    9.49060554
5.96096096    -6.38627667    9.22544263
5.97597598    -6.43803374    8.91579974
5.99099099    -6.38341978    8.61038852
6.00600601    -6.24535065    8.39878069
6.02102102    -6.11693825    8.31237676
6.03603604    -6.07858287    8.29986607
6.05105105    -6.14442779    8.27237292
6.06606607    -6.26316454    8.16691090
6.08108108    -6.36585197    7.97801159
6.09609610    -6.40823687    7.74296187
6.11111111    -6.38752356    7.50604962
6.12612613    -6.31897171    7.28872584
6.14114114    -6.21287991    7.10306058
6.15615616    -6.08260359    6.96155115
6.17117117    -5.94805321    6.87227143
6.18618619    -5.83702957    6.83285865
6.20120120    -5.77338105    6.81676968
6.21621622    -5.74914180    6.78880810
6.23123123    -5.74015318    6.74023345
6.24624625    -5.73650008    6.67410934
6.26126126    -5.72755399    6.58822071
6.27627628    -5.69722138    6.49178351
6.29129129    -5.64277777    6.40679499
6.30630631    -5.58176241    6.34805748
6.32132132    -5.53269185    6.30766334
6.33633634    -5.49283396    6.27288409
6.35135135    -5.45686173    6.25194658
6.36636637    -5.44422738    6.25256305
6.38138138    -5.47719988    6.25233385
6.39639640    -5.54886581    6.21542048
6.41141141    -5.62808015    6.12167138
6.42642643    -5.67776125    5.97669067
6.44144144    -5.67442895    5.80833129
6.45645646    -5.61804794    5.65053944
6.47147147    -5.52845610    5.52552333
6.48648649    -5.42759462    5.43682111
6.50150150    -5.33195760    5.37927846
6.51651652    -5.25119503    5.33831216
6.53153153    -5.17659455    5.30090325
6.54654655    -5.09633227    5.27527175
6.56156156    -5.01978056    5.27663502
6.57657658    -4.96696990    5.30182139
6.59159159    -4.94684019    5.33563784
6.60660661    -4.96109284    5.36426159
6.62162162    -5.00695490    5.36953522
6.63663664    -5.06470540    5.33570982
6.65165165    -5.11071264    5.26904912
6.66666667    -5.13709535    5.18225809
6.68168168    -5.13712174    5.08405821
6.69669670    -5.10640383    4.99219473
6.71171171    -5.05821985    4.92649949
6.72672673    -5.01860907    4.88727542
6.74174174    -4.99941156    4.85340838
6.75675676    -4.98944340    4.81006601
6.77177177    -4.97835469    4.76013411
6.78678679    -4.96512166    4.70732704
6.80180180    -4.94934464    4.65292059
6.81681682    -4.93111596    4.59739777
6.83183183    -4.90795095    4.54127590
6.84684685    -4.87992280    4.49124393
6.86186186    -4.85719866    4.44834508
6.87687688    -4.84313842    4.40098706
6.89189189    -4.82727989    4.34167538
6.90690691    -4.79750559    4.27659768
6.92192192    -4.75255424    4.21990650
6.93693694    -4.70353537    4.18121668
6.95195195    -4.66541811    4.15703039
6.96696697    -4.64314119    4.13273435
6.98198198    -4.62776945    4.09820563
6.99699700    -4.60873073    4.05453115
7.01201201    -4.58088703    4.00920826
7.02702703    -4.54773114    3.96962577
7.04204204    -4.51499230    3.93422030
7.05705706    -4.47906112    3.90014499
7.07207207    -4.43686291    3.87537262
7.08708709    -4.39727690    3.86867212
7.10210210    -4.37660942    3.87946041
7.11711712    -4.39052307    3.89066242
7.13213213    -4.43412558    3.87249008
7.14714715    -4.47689917    3.80900054
7.16216216    -4.48707220    3.71580651
7.17717718    -4.45940372    3.62425387
7.19219219    -4.41012410    3.55243186
7.20720721    -4.35558138    3.50143848
7.22222222    -4.30439436    3.46610077
7.23723724    -4.26131480    3.44209655
7.25225225    -4.23066221    3.42325775
7.26726727    -4.21299836    3.40110333
7.28228228    -4.20388585    3.36635009
7.29729730    -4.19016724    3.31362137
7.31231231    -4.15732639    3.25194874
7.32732733    -4.10470094    3.19799872
7.34234234    -4.04264347    3.16104255
7.35735736    -3.98242758    3.14034308
7.37237237    -3.92863869    3.12826609
7.38738739    -3.87645371    3.12146615
7.40240240    -3.82477862    3.12724221
