# omega(eV)     n     kappa     alpha(1/m)
0.00000000     3.48741743     0.00000000     0.00000000
0.01501501     3.48765012     0.00163541     248.88363571
0.03003003     3.48835087     0.00329287     1002.24356196
0.04504504     3.48952784     0.00499543     2280.67461543
0.06006006     3.49119497     0.00676832     4120.12206839
0.07507508     3.49337247     0.00864023     6574.52519121
0.09009009     3.49608752     0.01064497     9719.97095313
0.10510511     3.49937534     0.01282370     13660.94091969
0.12012012     3.50328044     0.01522788     18539.52894945
0.13513513     3.50785823     0.01792354     24549.09933475
0.15015015     3.51317700     0.02099739     31954.69116631
0.16516517     3.51932000     0.02456590     41123.94393310
0.18018018     3.52638727     0.02878905     52574.83797241
0.19519519     3.53449615     0.03389152     67050.74736590
0.21021021     3.54377767     0.04019600     85640.69683024
0.22522523     3.55436231     0.04817632     109975.05431785
0.24024024     3.56633923     0.05854187     142546.28253983
0.25525526     3.57965156     0.07236866     187227.12225720
0.27027027     3.59383859     0.09128206     250050.20791055
0.28528528     3.60742759     0.11762141     340102.07430092
0.30030030     3.61662793     0.15418939     469303.49622994
0.31531531     3.61325036     0.20217543     646125.62007665
0.33033033     3.58467950     0.25457750     852338.27974050
0.34534535     3.52558076     0.28870629     1010539.69415422
0.36036036     3.45792750     0.28152197     1028236.07798907
0.37537538     3.41476892     0.24191411     920387.08021035
0.39039039     3.40363985     0.19730942     780711.31383934
0.40540540     3.41318668     0.16302279     669855.90120556
0.42042042     3.43252457     0.14147582     602850.39267014
0.43543543     3.45581449     0.13092244     577805.10459250
0.45045045     3.48036651     0.12961899     591778.49960763
0.46546547     3.50464729     0.13669009     644863.85271013
0.48048048     3.52727028     0.15182849     739388.23998700
0.49549550     3.54690647     0.17520457     879890.57922432
0.51051051     3.56120397     0.20848005     1078729.90030006
0.52552553     3.56285873     0.25308390     1348037.14982398
0.54054054     3.53959861     0.30152994     1651970.32472942
0.55555556     3.48850745     0.33101440     1863879.81713419
0.57057057     3.43326920     0.32248072     1864904.71811288
0.58558559     3.40346123     0.28844356     1711964.49068884
0.60060060     3.40280762     0.25589869     1557748.55351704
0.61561562     3.41766888     0.23945111     1494066.80060714
0.63063063     3.43335964     0.24087025     1539578.17119221
0.64564565     3.43845658     0.25373741     1660436.41469716
0.66066066     3.42939362     0.26529957     1776472.63592283
0.67567568     3.41391818     0.26614173     1822614.37358333
0.69069069     3.40069131     0.25650634     1795664.67359977
0.70570571     3.39534558     0.23905045     1709844.93369799
0.72072072     3.40241853     0.22045907     1610417.60479114
0.73573574     3.41908452     0.20927791     1560589.79027947
0.75075075     3.43772545     0.20779786     1581176.54588134
0.76576577     3.45386772     0.21193168     1644884.28402148
0.78078078     3.46971497     0.21844913     1728713.22853210
0.79579580     3.48733644     0.23091071     1862469.83924265
0.81081081     3.50149634     0.25351004     2083330.74570402
0.82582583     3.50389223     0.28293827     2368228.91540152
0.84084084     3.49227561     0.30955710     2638141.50567966
0.85585586     3.47188485     0.32619522     2829578.50153285
0.87087087     3.45032444     0.33010145     2913699.24009111
0.88588589     3.43691186     0.32530794     2920895.18103599
0.90090090     3.43188088     0.32346967     2953616.51720983
0.91591592     3.42413892     0.32766761     3041813.93844213
0.93093093     3.40890849     0.32807577     3095530.85522193
0.94594595     3.39388370     0.31882191     3056736.57516090
0.96096096     3.38446266     0.30366761     2957656.56004040
0.97597598     3.38103293     0.28470880     2816330.03622173
0.99099099     3.38650603     0.26337970     2645425.44805398
1.00600601     3.40230212     0.24573191     2505564.87642697
1.02102102     3.42343902     0.23670254     2449520.73719879
1.03603604     3.44444317     0.23458628     2463320.91468496
1.05105105     3.46564279     0.23621987     2516423.72357648
1.06606607     3.48846372     0.24350348     2631072.56747494
1.08108108     3.50955550     0.25874040     2835084.65093607
1.09609610     3.52535792     0.27992350     3109793.29444210
1.11111111     3.53539135     0.30534807     3438715.06098267
1.12612613     3.53684652     0.33489296     3822403.88870081
1.14114114     3.52585016     0.36316299     4200340.25111862
1.15615616     3.50521411     0.38290293     4486923.96582462
1.17117117     3.48058381     0.39156389     4648004.47570221
1.18618619     3.45695876     0.38948924     4682651.62582050
1.20120120     3.43691835     0.37868768     4610419.66639949
1.21621622     3.42319931     0.35826426     4416292.27716091
1.23123123     3.42392473     0.33156770     4137665.38282217
1.24624625     3.44095023     0.31105870     3929069.82293573
1.26126126     3.46446767     0.30558989     3906497.67852478
1.27627628     3.48235954     0.31321674     4051661.86110927
1.29129129     3.48866478     0.32466519     4249163.83904174
1.30630631     3.48532934     0.33019210     4371749.07217139
1.32132132     3.48058292     0.32367233     4334684.98153914
1.33633634     3.48534726     0.30771555     4167818.05820562
1.35135135     3.50382017     0.29222535     4002484.86590941
1.36636637     3.53209420     0.28506905     3947850.99851310
1.38138138     3.56485973     0.28865232     4041403.10508866
1.39639640     3.59873378     0.30447383     4309255.19152366
1.41141141     3.62790861     0.33486944     4790409.72651489
1.42642643     3.64315703     0.37759600     5459090.36623828
1.44144144     3.63750072     0.42336073     6185162.34308425
1.45645646     3.61128054     0.45888126     6773940.16664233
1.47147147     3.57457542     0.47340773     7060422.90056505
1.48648649     3.54184463     0.46654730     7029107.29099353
1.50150150     3.52214501     0.44648234     6794751.49725036
1.51651652     3.51724738     0.42214809     6488667.25300728
1.53153153     3.52565566     0.40081359     6221740.73041173
1.54654655     3.54142319     0.38875757     6093760.46877742
1.56156156     3.55488836     0.38451140     6085718.38767852
1.57657658     3.56386491     0.37875443     6052242.41725846
1.59159159     3.57600394     0.36681789     5917328.31222097
1.60660661     3.59850582     0.35367548     5759145.20237270
1.62162162     3.63067464     0.34809912     5721316.46347963
1.63663664     3.66537648     0.35354699     5864661.31934942
1.65165165     3.69873171     0.36680403     6140391.76641318
1.66666667     3.73235944     0.38800787     6554397.99552936
1.68168168     3.76266368     0.42244489     7200412.57187407
1.69669670     3.77898033     0.46970423     8077411.64218577
1.71171171     3.77230012     0.51979246     9017873.10839004
1.72672673     3.74225541     0.55596576     9730052.42271812
1.74174174     3.70372726     0.56366902     9950649.95430797
1.75675676     3.67861659     0.54646854     9730167.72460705
1.77177177     3.67589051     0.52179423     9370236.97015303
1.78678679     3.68918644     0.50403626     9128050.57124955
1.80180180     3.70661306     0.49531924     9045565.89591611
1.81681682     3.72402488     0.48842615     8994014.28780900
1.83183183     3.74638508     0.48017641     8915176.55236468
1.84684685     3.77746837     0.47450871     8882160.09197499
1.86186186     3.81653174     0.47669709     8995669.31762734
1.87687688     3.86016477     0.49077185     9335959.37377939
1.89189189     3.90302250     0.51946414     9960827.35252621
1.90690691     3.93731081     0.56292741     10879912.85762534
1.92192192     3.95412141     0.61585095     11996508.98558220
1.93693694     3.94857990     0.66537491     13062473.74297079
1.95195195     3.92795057     0.69632197     13775987.78312948
1.96696697     3.90889869     0.70438673     14042736.85842453
1.98198198     3.90427076     0.69677693     13997065.40528602
1.99699700     3.92038579     0.68530934     13870994.13761594
2.01201201     3.95457875     0.68413705     13951381.25816967
2.02702703     3.99442684     0.70018300     14385157.62879553
2.04204204     4.02955970     0.72762617     15059706.67901769
2.05705706     4.06155965     0.75860351     15816293.35257895
2.07207207     4.09484818     0.79493793     16694814.63441895
2.08708709     4.12631809     0.83971784     17763047.47453282
2.10210210     4.15389245     0.89020045     18966410.17550554
2.11711712     4.18016732     0.94699553     20320591.18729372
2.13213213     4.20248694     1.01522579     21939174.37406791
2.14714715     4.21306752     1.09427507     23813971.98665562
2.16216216     4.20821491     1.17887201     25834403.82599010
2.17717718     4.18555185     1.26507970     27916128.30506794
2.19219219     4.14269223     1.34515956     29887937.92378961
2.20720721     4.08415281     1.40979941     31538712.09688265
2.22222222     4.01887531     1.45488444     32768722.40872560
2.23723724     3.95565519     1.48165750     33597223.61545580
2.25225225     3.90004891     1.49520291     34131917.57852305
2.26726727     3.85373820     1.49984593     34466159.46099661
2.28228228     3.82005670     1.49867710     34667374.62667768
2.29729730     3.80231990     1.50099845     34949500.35772032
2.31231231     3.79344192     1.51941737     35609600.62268196
2.32732733     3.77570389     1.55699755     36727293.28894448
2.34234234     3.73379183     1.59893765     37959931.65235085
2.35735736     3.67291311     1.62291892     38776246.87644889
2.37237237     3.61259415     1.62333271     39033178.96067096
2.38738739     3.56393027     1.60863022     38924464.33628025
2.40240240     3.53065355     1.58689122     38639939.37203912
2.41741742     3.51294962     1.56725829     38400400.10173239
2.43243243     3.50511000     1.55629482     38368620.22851560
2.44744745     3.50094691     1.55458439     38563034.69083842
2.46246246     3.49895699     1.56166505     38976338.17434428
2.47747748     3.49528414     1.58264148     39740724.94427507
2.49249249     3.47631414     1.61701344     40849901.45457752
2.50750751     3.43248105     1.64873084     41902074.91208745
2.52252252     3.37270261     1.65987532     42437915.66027539
2.53753754     3.31327336     1.64721218     42364837.51171336
2.55255255     3.26491622     1.61518312     41786883.79087641
2.56756757     3.23683936     1.57107836     40884929.52911877
2.58258258     3.23266398     1.52933533     40031371.05330480
2.59759760     3.24430506     1.50188623     39541435.92244495
2.61261261     3.26150296     1.49211206     39511178.49781457
2.62762763     3.27403617     1.49971489     39940734.66786733
2.64264264     3.27211090     1.51665138     40622601.17876075
2.65765766     3.25618383     1.52942633     41197524.84112395
2.67267267     3.23697973     1.53219520     41505284.43289670
2.68768769     3.22212444     1.53070199     41697783.87034858
2.70270270     3.20961625     1.53139109     41949608.88127071
2.71771772     3.19436571     1.53476299     42275542.37835915
2.73273273     3.17325734     1.53652236     42557839.15946632
2.74774775     3.14897780     1.53123669     42644469.14556974
2.76276276     3.12701865     1.51822251     42513077.67209827
2.77777778     3.11183263     1.49991733     42228761.75184058
2.79279279     3.10556470     1.48240934     41961439.99821667
2.80780781     3.10355534     1.47134859     41872267.46112107
2.82282282     3.09929944     1.46507293     41916632.76986519
2.83783784     3.09182027     1.45866470     41955275.03288957
2.85285285     3.08321933     1.44964848     41916556.89429778
2.86786787     3.07617498     1.43702820     41770334.62136300
2.88288288     3.07451246     1.42210635     41553020.63599372
2.89789790     3.07984086     1.41025214     41421266.48711009
2.91291291     3.08773199     1.40647162     41524269.23508536
2.92792793     3.09110216     1.40938482     41824763.78399437
2.94294294     3.08844809     1.41241721     42129700.17306922
2.95795796     3.08395233     1.41327925     42370491.93932990
2.97297297     3.07904730     1.41415725     42612026.81583023
2.98798799     3.07170277     1.41621076     42889428.88159089
3.00300300     3.05909891     1.41687337     43125121.40879703
3.01801802     3.04250245     1.41092091     43158667.00077627
3.03303303     3.02771081     1.39575100     42907045.64664438
3.04804805     3.02136115     1.37451525     42463412.96740019
3.06306306     3.02496081     1.35488255     42063084.26750167
3.07807808     3.03354097     1.34226666     41875688.35859311
3.09309309     3.04037388     1.33608813     41886263.72225463
3.10810811     3.04237089     1.33056463     41915593.30320169
3.12312312     3.04351916     1.32040240     41796405.71855302
3.13813814     3.05019352     1.30773241     41594362.31481153
3.15315315     3.06227275     1.29867533     41503926.02408095
3.16816817     3.07579604     1.29494566     41581800.90490076
3.18318318     3.08889396     1.29586230     41808444.87766742
3.19819820     3.10043085     1.30222875     42212024.20574466
3.21321321     3.10564351     1.31497470     42825305.05101812
3.22822823     3.09793523     1.32789163     43448059.92197613
3.24324324     3.07992839     1.32862461     43674238.31785115
3.25825826     3.06568416     1.31284355     43355280.97516738
3.27327327     3.06501891     1.29104122     42831757.79607771
3.28828829     3.07366626     1.27327336     42436060.92264279
3.30330330     3.08603273     1.26020670     42192354.44093941
3.31831832     3.09983814     1.25153127     42092360.08507749
3.33333333     3.11271630     1.24575186     42087566.35322835
3.34834835     3.12509148     1.24099232     42115625.20900126
3.36336336     3.13685850     1.23742375     42182834.79292075
3.37837838     3.14750406     1.23337828     42232628.37501698
3.39339339     3.15882691     1.22776211     42227168.50687881
3.40840841     3.17296872     1.22098821     42180004.68298765
3.42342342     3.19192569     1.21676710     42219355.75042691
3.43843844     3.21076593     1.21989956     42513695.20399788
3.45345345     3.22214794     1.22578027     42905183.06792474
3.46846847     3.22850070     1.22563520     43086627.44084345
3.48348348     3.23801938     1.21894484     43036934.89554639
3.49849850     3.25320308     1.21110298     42944375.25078221
3.51351351     3.27267902     1.20438908     42889596.83605604
3.52852853     3.29652277     1.20101378     42952174.00252160
3.54354354     3.32059797     1.20438631     43256074.88439366
3.55855856     3.33859891     1.21037043     43655196.57237275
3.57357357     3.35317031     1.21131030     43873437.33534563
3.58858859     3.37116950     1.20772202     43927266.92348509
3.60360360     3.39370524     1.20377423     43966872.91427850
3.61861862     3.41990461     1.20084896     44042780.11282124
3.63363363     3.44932976     1.20062737     44217369.48359884
3.64864865     3.47857525     1.20409317     44528253.62285662
3.66366366     3.50485203     1.20629242     44793161.94808579
3.67867868     3.53393805     1.20169314     44805256.10511604
3.69369369     3.57433061     1.19441336     44715599.17798224
3.70870871     3.62622560     1.19349235     44862749.64170232
3.72372372     3.68407627     1.20316354     45409386.90392536
3.73873874     3.74288735     1.22310038     46347972.85764283
3.75375375     3.79998928     1.24985189     47551898.04611886
3.76876877     3.85869671     1.28048908     48912391.42167413
3.78378378     3.92286214     1.32047324     50640669.95529266
3.79879880     3.98639131     1.37716589     53024438.10359165
3.81381381     4.03890147     1.44855685     55993621.30407690
3.82882883     4.07609052     1.52599337     59219143.92954321
3.84384384     4.10060171     1.60212016     62417209.16322940
3.85885886     4.11789841     1.67422727     65481230.44613647
3.87387387     4.13199365     1.74451685     68495835.86208913
3.88888889     4.14165385     1.81583389     71572333.65986472
3.90390390     4.14429866     1.88596104     74623456.47236575
3.91891892     4.14254929     1.95109310     77497518.45972303
3.93393393     4.14084044     2.01275135     80252896.08556552
3.94894895     4.13900211     2.07411694     83015327.01348020
3.96396396     4.13607040     2.13545864     85795475.84000488
3.97897898     4.13205824     2.19752183     88623391.80796692
3.99399399     4.12551140     2.26089893     91523386.29629046
4.00900901     4.11470668     2.32441542     94448335.01798305
4.02402402     4.09896466     2.38476277     97263361.04041655
4.03903904     4.08200259     2.43743955     99782740.91034767
4.05405405     4.07218323     2.48334949     102040106.46140699
4.06906907     4.07398176     2.53087875     104378229.51067039
4.08408408     4.08408845     2.58794558     107125617.75630355
4.09909910     4.09709985     2.65643567     110364969.26110949
4.11411411     4.11282415     2.73664688     114113919.25538589
4.12912913     4.13061771     2.83643308     118706508.54612567
4.14414414     4.13837235     2.96371878     124484526.11446628
4.15915916     4.12000937     3.11388156     131265668.76364313
4.17417417     4.06760935     3.27628890     138610548.66148591
4.18918919     3.97403782     3.44164685     146130141.62662593
4.20420420     3.83292143     3.59098432     153017406.37871155
4.21921922     3.65447163     3.69972410     158214015.94644859
4.23423423     3.46457728     3.75618947     161200318.51175013
4.24924925     3.28881942     3.76924492     162334224.11654967
4.26426426     3.13646963     3.76087662     162546162.82682967
4.27927928     2.99561994     3.74585986     162467194.93124926
4.29429429     2.85367829     3.71481614     161686087.59321800
4.30930931     2.72348115     3.65226816     159519525.73079914
4.32432432     2.62933937     3.56792410     156378625.40293106
4.33933934     2.57564834     3.48868032     153436369.62104675
4.35435435     2.54765723     3.43301884     151510761.21546656
4.36936937     2.52643187     3.40644130     150856210.76881659
4.38438438     2.49306928     3.40473697     151298880.43300253
4.39939940     2.43263229     3.41143164     152115542.16709667
4.41441441     2.34660746     3.40055093     152147881.73560914
4.42942943     2.25818945     3.35719508     150718960.42693195
4.44444444     2.18918100     3.29110653     148252814.51636612
4.45945946     2.14443709     3.21745531     145424731.15996569
4.47447447     2.12358160     3.14683357     142711619.65523532
4.48948949     2.12217143     3.09055091     140629484.91439903
4.50450450     2.12856113     3.05523582     139487499.13792700
4.51951952     2.13123178     3.03850024     139185843.65520379
4.53453453     2.12362084     3.03503135     139488826.54206514
4.54954955     2.09947462     3.03880891     140124900.22030649
4.56456457     2.05411315     3.03753612     140528474.22386253
4.57957958     1.99391793     3.01403117     139899729.77006212
4.59459460     1.93957562     2.96025808     137854293.99449527
4.60960961     1.91117344     2.88704469     134884230.51626009
4.62462463     1.91443664     2.81435348     131916359.46870930
4.63963964     1.94186424     2.75816468     129702386.92143832
4.65465465     1.98138195     2.72517610     128565831.05994275
4.66966967     2.02231628     2.71643141     128566679.71248963
4.68468468     2.05416734     2.72918713     129585737.58260567
4.69969970     2.06960423     2.75452551     131208035.17412394
4.71471472     2.07007214     2.78284835     132980660.27543262
4.72972973     2.06044946     2.81232262     134817103.04192594
4.74474475     2.03931674     2.84536081     136833906.00878438
4.75975976     1.99942575     2.87839266     138860459.31292236
