# omega(eV)     n     kappa     alpha(1/m)
0.00000000     3.18705947     0.00000000     0.00000000
0.01501501     3.18708430     0.00016560     25.20234041
0.03003003     3.18715880     0.00033127     100.82804820
0.04504504     3.18728301     0.00049706     226.93159276
0.06006006     3.18745695     0.00066302     403.60486009
0.07507508     3.18768070     0.00082923     630.97567155
0.09009009     3.18795434     0.00099574     909.21089464
0.10510511     3.18827797     0.00116261     1238.51411191
0.12012012     3.18865170     0.00132991     1619.12748206
0.13513513     3.18907568     0.00149770     2051.32927916
0.15015015     3.18955004     0.00166604     2535.44666015
0.16516517     3.19007498     0.00183500     3071.83752275
0.18018018     3.19065069     0.00200465     3660.90587831
0.19519519     3.19127738     0.00217505     4303.09951800
0.21021021     3.19195528     0.00234627     4998.91074087
0.22522523     3.19268465     0.00251839     5748.87684688
0.24024024     3.19346577     0.00269147     6553.58149981
0.25525526     3.19429894     0.00286559     7413.66467217
0.27027027     3.19518447     0.00304084     8329.80691256
0.28528528     3.19612272     0.00321728     9302.75246379
0.30030030     3.19711405     0.00339500     10333.29389710
0.31531531     3.19815886     0.00357408     11422.29071312
0.33033033     3.19925756     0.00375462     12570.66566373
0.34534535     3.20041061     0.00393671     13779.39883664
0.36036036     3.20161847     0.00412043     15049.54084966
0.37537538     3.20288164     0.00430590     16382.22318700
0.39039039     3.20420067     0.00449320     17778.64720194
0.40540540     3.20557612     0.00468246     19240.10171758
0.42042042     3.20700857     0.00487379     20767.96600175
0.43543543     3.20849867     0.00506730     22363.70542355
0.45045045     3.21004709     0.00526312     24028.88487120
0.46546547     3.21165451     0.00546138     25765.19867484
0.48048048     3.21332171     0.00566223     27574.42751945
0.49549550     3.21504945     0.00586580     29458.50306986
0.51051051     3.21683857     0.00607226     31419.46527171
0.52552553     3.21868996     0.00628178     33459.52751338
0.54054054     3.22060455     0.00649452     35581.04819523
0.55555556     3.22258331     0.00671068     37786.55905054
0.57057057     3.22462729     0.00693045     40078.77688488
0.58558559     3.22673759     0.00715406     42460.62703486
0.60060060     3.22891538     0.00738173     44935.27621243
0.61561562     3.23116189     0.00761371     47506.10298296
0.63063063     3.23347844     0.00785026     50176.78824616
0.64564565     3.23586641     0.00809168     52951.30829644
0.66066066     3.23832729     0.00833828     55833.96279374
0.67567568     3.24086264     0.00859039     58829.43930162
0.69069069     3.24347415     0.00884838     61942.81550024
0.70570571     3.24616360     0.00911265     65179.63952751
0.72072072     3.24893289     0.00938365     68546.00259660
0.73573574     3.25178406     0.00966184     72048.54054034
0.75075075     3.25471930     0.00994776     75694.57939430
0.76576577     3.25774095     0.01024200     79492.16761545
0.78078078     3.26085152     0.01054520     83450.24792171
0.79579580     3.26405373     0.01085809     87578.71217512
0.81081081     3.26735049     0.01118146     91888.55164393
0.82582583     3.27074497     0.01151621     96392.11182281
0.84084084     3.27424060     0.01186336     101103.20444193
0.85585586     3.27784111     0.01222405     106037.41301082
0.87087087     3.28155057     0.01259957     111212.37281461
0.88588589     3.28537341     0.01299142     116648.19605939
0.90090090     3.28931451     0.01340130     122367.84788768
0.91591592     3.29337925     0.01383116     128397.80271129
0.93093093     3.29757356     0.01428328     134768.69202977
0.94594595     3.30190402     0.01476035     141516.30069500
0.96096096     3.30637797     0.01526549     148682.57153383
0.97597598     3.31100360     0.01580245     156317.28580909
0.99099099     3.31579017     0.01637568     164479.83599064
1.00600601     3.32074810     0.01699060     173241.88922982
1.02102102     3.32588926     0.01765381     182690.78502691
1.03603604     3.33122719     0.01837345     192934.15971292
1.05105105     3.33677746     0.01915973     204106.39743368
1.06606607     3.34255806     0.02002555     216377.52136349
1.08108108     3.34858984     0.02098756     229966.09129292
1.09609610     3.35489709     0.02206751     245157.68924016
1.11111111     3.36150807     0.02329438     262332.52272696
1.12612613     3.36845555     0.02470754     282007.08163894
1.14114114     3.37577687     0.02636164     304898.53619919
1.15615616     3.38351291     0.02833424     332025.55814944
1.17117117     3.39170405     0.03073773     364867.96836192
1.18618619     3.40037877     0.03373792     405615.58078006
1.20120120     3.40952420     0.03758031     457530.02814273
1.21621622     3.41901530     0.04261786     525346.58003418
1.23123123     3.42845975     0.04929688     615180.47978946
1.24624625     3.43694023     0.05794200     731881.70697090
1.26126126     3.44295452     0.06802007     869532.20308265
1.27627628     3.44566775     0.07722640     998973.61971911
1.29129129     3.44721293     0.08311462     1087790.33693470
1.30630631     3.45087001     0.08672461     1148235.26961873
1.32132132     3.45709426     0.09083311     1216455.26016300
1.33633634     3.46487229     0.09704068     1314356.34122278
1.35135135     3.47263442     0.10680099     1462807.12577004
1.36636637     3.47678199     0.12031544     1666218.86827884
1.38138138     3.47389327     0.13336894     1867290.24627476
1.39639640     3.46671168     0.13931196     1971699.09191145
1.41141141     3.46328982     0.13803197     1974589.56938096
1.42642643     3.46644104     0.13642645     1972384.08482346
1.44144144     3.47194210     0.13858724     2024714.40048186
1.45645646     3.47606581     0.14274227     2107141.22376411
1.47147147     3.47922899     0.14647386     2184517.34650877
1.48648649     3.48244873     0.14961578     2254145.28288781
1.50150150     3.48621617     0.15212400     2315085.44832541
1.51651652     3.49124065     0.15443583     2373770.58127741
1.53153153     3.49783737     0.15738513     2443054.62023905
1.54654655     3.50602226     0.16235216     2544864.12312502
1.56156156     3.51411784     0.17130347     2711245.19291153
1.57657658     3.51803912     0.18387802     2938247.78234727
1.59159159     3.51547964     0.19526817     3149971.47042994
1.60660661     3.50977932     0.20047237     3264431.87219961
1.62162162     3.50738839     0.19996315     3286571.03757915
1.63663664     3.51052759     0.20013860     3319912.62743393
1.65165165     3.51373549     0.20499230     3431622.69911669
1.66666667     3.51188963     0.21037801     3553796.96600930
1.68168168     3.50711271     0.21074650     3592093.93141214
1.69669670     3.50374356     0.20511539     3527329.11938021
1.71171171     3.50579494     0.19444898     3373493.07264176
1.72672673     3.51652788     0.18338075     3209378.07979681
1.74174174     3.53387560     0.17751437     3133724.43149855
1.75675676     3.55354394     0.17807605     3170740.38424286
1.77177177     3.57383164     0.18436849     3310838.49953524
1.78678679     3.59333325     0.19773522     3580966.75442062
1.80180180     3.60735970     0.21872567     3994388.47047157
1.81681682     3.61093021     0.24287339     4472337.89978076
1.83183183     3.60440252     0.26262805     4876073.38987642
1.84684685     3.59345983     0.27415398     5131791.11271886
1.86186186     3.58227469     0.27862129     5257814.66286523
1.87687688     3.57275487     0.27696949     5268794.33472090
1.89189189     3.56658478     0.27068189     5190378.61619513
1.90690691     3.56430160     0.26014480     5027917.73872573
1.92192192     3.56958958     0.24596910     4791371.13614257
1.93693694     3.58488510     0.23452740     4604183.11547951
1.95195195     3.60529664     0.23206103     4591079.97512669
1.96696697     3.62328745     0.23830183     4750813.31808371
1.98198198     3.63460423     0.24805300     4982963.64315678
1.99699700     3.63988557     0.25501468     5161621.06121392
2.01201201     3.64462838     0.25525307     5205291.75060279
2.02702703     3.65570290     0.25127265     5162359.89262919
2.04204204     3.67482959     0.25015804     5177530.58509671
2.05705706     3.69790200     0.25734148     5365369.69702082
2.07207207     3.71875269     0.27385152     5751267.15624102
2.08708709     3.73207694     0.29690254     6280554.81566035
2.10210210     3.73529676     0.32106226     6840480.28412494
2.11711712     3.72948960     0.34066451     7309964.97034338
2.13213213     3.71856266     0.35174444     7601247.61145721
2.14714715     3.70756455     0.35336515     7690047.90280993
2.16216216     3.70071448     0.34693016     7602804.85821235
2.17717718     3.70119072     0.33532095     7399425.19731657
2.19219219     3.71058672     0.32302652     7177287.28086447
2.20720721     3.72687677     0.31521649     7051728.09916490
2.22222222     3.74431497     0.31320447     7054381.88103691
2.23723724     3.75975444     0.31238845     7083542.93900733
2.25225225     3.77677834     0.30869384     7046744.27614731
2.26726727     3.80107940     0.30438967     6994813.82401853
2.28228228     3.83356550     0.30670317     7094652.94428807
2.29729730     3.86837864     0.32089144     7471690.35809345
2.31231231     3.89845760     0.34608897     8111063.09001901
2.32732733     3.91980620     0.37896093     8939133.72561925
2.34234234     3.92866730     0.41585470     9872690.28282634
2.35735736     3.92232953     0.44913231     10731075.39401408
2.37237237     3.90442206     0.46893924     11275685.55907482
2.38738739     3.88586295     0.46951927     11361085.83149858
2.40240240     3.87946799     0.45494123     11077571.76185389
2.41741742     3.89064618     0.43739796     10716967.91734035
2.43243243     3.91359661     0.42719547     10532002.46915298
2.44744745     3.93959372     0.42421402     10523056.87839949
2.46246246     3.96770165     0.42333285     10565623.22087242
2.47747748     4.00216396     0.42485610     10668297.13615325
2.49249249     4.04381620     0.43431130     10971815.86318227
2.50750751     4.08825736     0.45658420     11603971.28162484
2.52252252     4.12825728     0.49304132     12605552.83257482
2.53753754     4.15569306     0.54017232     13892753.31383513
2.55255255     4.16551241     0.58817675     15216895.93682005
2.56756757     4.16176787     0.62487687     16261471.91600045
2.58258258     4.15650869     0.64479351     16877899.55345998
2.59759760     4.16200955     0.65220419     17171134.15119811
2.61261261     4.18400263     0.65922542     17456311.78125437
2.62762763     4.21623271     0.67691059     18027630.82418819
2.64264264     4.24976454     0.70486808     18879470.44376952
2.65765766     4.28416380     0.74006047     19934703.10128299
2.67267267     4.31909524     0.78549483     21278089.40472386
2.68768769     4.34948655     0.84218778     22941999.25570353
2.70270270     4.37241447     0.90788782     24869897.12434269
2.71771772     4.38587903     0.98192860     27047540.57746771
2.73273273     4.38573551     1.06274249     29435317.79133400
2.74774775     4.36841468     1.14512053     31891253.19009183
2.76276276     4.33416181     1.22287510     34242796.19362442
2.77777778     4.28396292     1.29121691     36352997.83038843
2.79279279     4.22014052     1.34229605     37995359.07458486
2.80780781     4.15370909     1.36876062     38952775.17989450
2.82282282     4.10062456     1.37527126     39347352.24744709
2.83783784     4.06691675     1.37822790     39641687.81317789
2.85285285     4.04329289     1.39086469     40216824.60080835
2.86786787     4.01605551     1.41328940     41080314.90691566
2.88288288     3.97733335     1.43640091     41970698.30125106
2.89789790     3.92905565     1.44793327     42528018.80975948
2.91291291     3.88291971     1.44177475     42566548.93416932
2.92792793     3.85113664     1.42331857     42238260.44153312
2.94294294     3.83729913     1.40522545     41915183.83876754
2.95795796     3.83477651     1.39611899     41856022.67267838
2.97297297     3.83854339     1.39724718     42102484.77895262
2.98798799     3.84482987     1.41347165     42806475.79683758
3.00300300     3.84076752     1.44702521     44042847.37664457
3.01801802     3.81389119     1.48625257     45462987.78252236
3.03303303     3.76567598     1.51254393     46497399.16778263
3.04804805     3.71146909     1.51652761     46850653.68506739
3.06306306     3.66303789     1.50348741     46676604.87280289
3.07807808     3.62313134     1.47747390     46093849.06260733
3.09309309     3.59822962     1.44027848     45152623.35951906
3.10810811     3.59463701     1.40216615     44171192.14444942
3.12312312     3.60794311     1.37577736     43549260.86861278
3.13813814     3.62792309     1.36594154     43445789.68214908
3.15315315     3.64605393     1.37176290     43839706.99549475
3.16816817     3.65542964     1.38943699     44615997.62153997
3.18318318     3.65213922     1.41218430     45561345.00042780
3.19819820     3.63655243     1.43299828     46450946.54732465
3.21321321     3.61188131     1.44690696     47121995.66387312
3.22822823     3.58211182     1.45105013     47477754.71665730
3.24324324     3.55208659     1.44391931     47464178.73016844
3.25825826     3.52717638     1.42644944     47106996.27630264
3.27327327     3.51200761     1.40246028     46528211.63037752
3.28828829     3.50793962     1.37840455     45939906.86368241
3.30330330     3.51118416     1.35969700     45523339.71639221
3.31831832     3.51616584     1.34594503     45267748.46858721
3.33333333     3.52233259     1.33386761     45064545.83186281
3.34834835     3.53118588     1.32373340     44923614.07102630
3.36336336     3.54238724     1.31634082     44873057.58484294
3.37837838     3.55669070     1.31233356     44936169.44639531
3.39339339     3.57395114     1.31546187     45243479.53181296
3.40840841     3.58891548     1.32941887     45925827.78553364
3.42342342     3.59292996     1.35229295     46921828.34369352
3.43843844     3.58079204     1.37434877     47896274.63383523
3.45345345     3.55711107     1.38536054     48490866.48400857
3.46846847     3.52979059     1.38243121     48598717.37886215
3.48348348     3.50474234     1.36506983     48196127.84645478
3.49849850     3.48948073     1.33464388     47324999.26914937
3.51351351     3.49062792     1.29778241     46215434.11018527
3.52852853     3.50953708     1.26516483     45246424.97519437
3.54354354     3.53884797     1.24619835     44757773.03414326
3.55855856     3.56709789     1.24082911     44753768.89530236
3.57357357     3.58904572     1.24143262     44964462.34554681
3.58858859     3.60716585     1.24203253     45175208.78644477
3.60360360     3.62581724     1.24199362     45362805.18663736
3.61861862     3.64724939     1.24481125     45655157.18445958
3.63363363     3.66805851     1.25469004     46208419.26476161
3.64864865     3.68213440     1.26993530     46963144.23968916
3.66366366     3.68721628     1.28521626     47723834.96478685
3.67867868     3.68370559     1.29523856     48293107.03110143
3.69369369     3.67502566     1.29380375     48436506.20298917
3.70870871     3.67067940     1.27755093     48022467.44073982
3.72372372     3.68088118     1.25324259     47299453.42846666
3.73873874     3.70528933     1.23274912     46713600.85150229
3.75375375     3.73618096     1.22075560     46444899.88253112
3.76876877     3.76796132     1.21535552     46424406.13480421
3.78378378     3.79925940     1.21259146     46503361.10268947
3.79879880     3.83274485     1.21072742     46616127.71597711
3.81381381     3.87020990     1.21237377     46864020.56198376
3.82882883     3.90907815     1.22083720     47376964.49305656
3.84384384     3.94378406     1.23509594     48118264.33272655
3.85885886     3.97182059     1.24827914     48821838.99794406
3.87387387     3.99899339     1.25370269     49224754.43405389
3.88888889     4.03393712     1.25315859     49394102.30869433
3.90390390     4.08019898     1.25242502     49555787.21789186
3.91891892     4.13886104     1.25764538     49953739.40720418
3.93393393     4.20666376     1.27576737     50867697.06981020
3.94894895     4.27667564     1.30894911     52389928.48248556
3.96396396     4.34522995     1.35509219     54443002.08718485
3.97897898     4.41129837     1.41508592     57068699.90307342
3.99399399     4.46883559     1.49059737     60340830.63058913
4.00900901     4.51147810     1.57615983     64044348.57242026
4.02402402     4.53970129     1.66575875     67938537.31693575
4.03903904     4.55320321     1.75798060     71967373.70062406
4.05405405     4.54835497     1.84710183     75896875.70412421
4.06906907     4.52910552     1.92241194     79283906.76223120
4.08408408     4.50785418     1.98078955     81992954.45049399
4.09909910     4.49277519     2.02972918     84327657.88407741
4.11411411     4.48214237     2.07659088     86590610.33254956
4.12912913     4.47227083     2.12089827     88760926.55758424
4.14414414     4.46623769     2.16045684     90745264.94914927
4.15915916     4.46820647     2.20025379     92751692.65441589
4.17417417     4.47460722     2.24706930     95067168.35855649
4.18918919     4.47829321     2.30083378     97691942.45589066
4.20420420     4.47627520     2.35645762     100412310.43352458
4.21921922     4.47081713     2.40967694     103046782.79493876
4.23423423     4.46547358     2.46064800     105600967.00980644
4.24924925     4.46056600     2.51084704     108137416.27985357
4.26426426     4.45589451     2.55916248     110607734.05960523
4.27927928     4.45397291     2.60303849     112900209.21462598
4.29429429     4.46284784     2.64208880     114996001.28181919
4.30930931     4.49162976     2.68683160     117352309.49800403
4.32432432     4.53652153     2.75469056     120735394.20617634
4.33933934     4.58166063     2.85413499     125528300.62197222
4.35435435     4.61368043     2.98144937     131581469.67898588
4.36936937     4.62578620     3.13236629     138718641.25374627
4.38438438     4.61019144     3.30325923     146789436.81396329
4.39939940     4.55885305     3.48828489     155542424.05337387
4.41441441     4.46166487     3.67822272     164571508.14737341
4.42942943     4.31001333     3.85328465     172990559.99564746
4.44444444     4.11031147     3.98404773     179467386.91856849
4.45945946     3.89251690     4.04908003     183013069.86286294
4.47447447     3.69538991     4.05592379     183939645.96097034
4.48948949     3.53673917     4.03750079     183718590.47195032
4.50450450     3.40131451     4.02236530     183642019.44203106
4.51951952     3.26135555     4.00750141     183573283.40018281
4.53453453     3.11522812     3.96461333     182212042.13486835
4.54954955     2.99472103     3.88477411     179133864.53732172
4.56456457     2.92256532     3.79504284     175573741.13100189
4.57957958     2.89124271     3.72819662     173048541.75946206
4.59459460     2.87413030     3.70179717     172386535.87444270
4.60960961     2.84042740     3.71158908     173407373.21845850
4.62462463     2.76898941     3.73520360     175079095.00192809
4.63963964     2.65715339     3.73904553     175828199.50817192
4.65465465     2.53020318     3.69446242     174293921.96895939
4.66966967     2.42744968     3.60321562     170537517.35213071
4.68468468     2.36985352     3.49355840     165879186.68458760
4.69969970     2.35291503     3.39275026     161608993.88088542
4.71471472     2.36206796     3.31449641     158385892.92341250
4.72972973     2.38299824     3.26271917     156408209.77043590
4.74474475     2.40429164     3.23551593     155596535.11510634
4.75975976     2.41797381     3.22953622     155800453.86126965
4.77477478     2.41443320     3.24029840     156812768.57864875
4.78978979     2.38458964     3.25429734     157985493.44115296
4.80480480     2.33258595     3.25117537     158328708.79235223
