# omega(eV)     n     kappa     alpha(1/m)
0.00000000     3.69605871     0.00000000     0.00000000
0.01501501     3.69613203     0.00049129     74.76659893
0.03003003     3.69635209     0.00098337     299.30724652
0.04504504     3.69671924     0.00147704     674.34692293
0.06006006     3.69723406     0.00197311     1201.10647311
0.07507508     3.69789736     0.00247243     1881.32237633
0.09009009     3.69871020     0.00297586     2717.27062983
0.10510511     3.69967390     0.00348432     3711.80479952
0.12012012     3.70079004     0.00399878     4868.40435334
0.13513513     3.70206049     0.00452028     6191.22898768
0.15015015     3.70348744     0.00504994     7685.20012008
0.16516517     3.70507338     0.00558897     9356.07940123
0.18018018     3.70682119     0.00613872     11210.58862693
0.19519519     3.70873413     0.00670067     13256.55090134
0.21021021     3.71081587     0.00727645     15503.04842225
0.22522523     3.71307061     0.00786795     17960.64584977
0.24024024     3.71550304     0.00847725     20641.63145481
0.25525526     3.71811848     0.00910676     23560.37568544
0.27027027     3.72092295     0.00975927     26733.70638785
0.28528528     3.72392323     0.01043800     30181.46675627
0.30030030     3.72712703     0.01114675     33927.16087818
0.31531531     3.73054311     0.01188999     37998.82929552
0.33033033     3.73418146     0.01267311     42430.20339590
0.34534535     3.73805348     0.01350257     47262.16680473
0.36036036     3.74217233     0.01438630     52544.78987407
0.37537538     3.74655316     0.01533408     58340.06581649
0.39039039     3.75121357     0.01635812     64725.60638389
0.40540540     3.75617406     0.01747394     71799.92545134
0.42042042     3.76145865     0.01870147     79689.84319126
0.43543543     3.76709560     0.02006671     88561.18821739
0.45045045     3.77311817     0.02160423     98634.62724012
0.46546547     3.77956554     0.02336078     110209.33649201
0.48048048     3.78648345     0.02540083     123699.27345270
0.49549550     3.79392426     0.02781517     139689.90663300
0.51051051     3.80194508     0.03073451     159028.32747533
0.52552553     3.81060091     0.03435097     182968.49872958
0.54054054     3.81992576     0.03895226     213404.96130092
0.55555556     3.82988433     0.04497339     253236.72865696
0.57057057     3.84025426     0.05306339     306865.38870165
0.58558559     3.85035353     0.06412097     380569.52748780
0.60060060     3.85849024     0.07908167     481398.94933203
0.61561562     3.86127749     0.09779146     610174.53995904
0.63063063     3.85453188     0.11621765     742832.10985612
0.64564565     3.83915758     0.12542315     820758.64409774
0.66066066     3.82557183     0.12067671     808063.36388706
0.67567568     3.82276517     0.10893230     745999.42758164
0.69069069     3.82988459     0.09904791     693381.81051433
0.70570571     3.84212593     0.09455084     676289.36130479
0.72072072     3.85557280     0.09527572     695973.58238429
0.73573574     3.86817530     0.09934219     740796.81799252
0.75075075     3.88045037     0.10488778     798112.65837064
0.76576577     3.89407023     0.11275682     875149.59947716
0.78078078     3.90820813     0.12595998     996793.57275645
0.79579580     3.91854089     0.14637308     1180609.78072492
0.81081081     3.91848491     0.17161048     1410284.92761745
0.82582583     3.90414827     0.19208156     1607746.85168107
0.84084084     3.88319629     0.19636639     1673495.20441119
0.85585586     3.87083910     0.18578737     1611611.44816893
0.87087087     3.87264734     0.17318175     1528619.57673392
0.88588589     3.88227529     0.16778441     1506513.13618209
0.90090090     3.89085510     0.16976793     1550158.84085804
0.91591592     3.89427749     0.17274207     1603604.45239092
0.93093093     3.89649928     0.17142418     1617458.15430845
0.94594595     3.90211544     0.16813083     1611970.88070940
0.96096096     3.90966680     0.16578940     1614752.78049539
0.97597598     3.91806571     0.16286284     1611033.82537301
0.99099099     3.92959943     0.15939856     1601023.23579842
1.00600601     3.94415463     0.15801660     1611190.16844133
1.02102102     3.95992922     0.15868498     1642154.55973695
1.03603604     3.97801149     0.16070183     1687482.27918640
1.05105105     3.99954517     0.16685789     1777518.27799108
1.06606607     4.02180915     0.18067744     1952232.66261434
1.08108108     4.03942356     0.20291414     2223382.11544710
1.09609610     4.04638235     0.23019860     2557377.47030888
1.11111111     4.03968946     0.25341987     2853919.22921484
1.12612613     4.02691567     0.26236292     2994560.02956407
1.14114114     4.02191066     0.25963582     3002945.77226829
1.15615616     4.02719148     0.25776562     3020542.98149727
1.17117117     4.03442920     0.26249901     3115957.75694600
1.18618619     4.03633947     0.27033669     3250134.87811547
1.20120120     4.03138647     0.27343584     3329007.06034900
1.21621622     4.02635054     0.26538477     3271374.80872533
1.23123123     4.03024155     0.24937525     3111977.85233274
1.24624625     4.04439685     0.23250794     2936873.07847998
1.26126126     4.06715680     0.21789953     2785510.99783664
1.27627628     4.09798195     0.20832935     2694875.39627335
1.29129129     4.13450029     0.20718462     2711597.76060461
1.30630631     4.17270841     0.21613157     2861585.73937387
1.32132132     4.20831069     0.23483098     3144903.72433915
1.33633634     4.23772994     0.26080820     3532486.73276100
1.35135135     4.25966006     0.29071473     3981794.56918042
1.36636637     4.27351986     0.32257519     4467264.36608010
1.38138138     4.27714243     0.35302879     4942734.06836038
1.39639640     4.27185445     0.37467782     5302860.90548700
1.41141141     4.26643475     0.38368730     5488764.17930664
1.42642643     4.26793549     0.38576335     5577169.79770549
1.44144144     4.27417201     0.38655078     5647380.99882917
1.45645646     4.28294363     0.38429590     5672921.55197992
1.47147147     4.29752716     0.37801085     5637669.78614370
1.48648649     4.32044427     0.37043048     5580989.44807765
1.50150150     4.35276213     0.36474407     5550824.98707433
1.51651652     4.39413344     0.36533402     5615401.15702781
1.53153153     4.44141036     0.37585057     5834245.16594294
1.54654655     4.49077889     0.39777589     6235122.29386396
1.56156156     4.53836710     0.43244300     6844338.89120372
1.57657658     4.57683082     0.47996054     7669448.45814630
1.59159159     4.59749955     0.53217442     8584779.76072028
1.60660661     4.60223642     0.57374507     9342692.29015267
1.62162162     4.60517383     0.59690427     9810648.95315472
1.63663664     4.62045814     0.60601144     10052558.77819605
1.65165165     4.65631320     0.61334710     10267584.73349855
1.66666667     4.70991367     0.63408706     10711274.97872659
1.68168168     4.76891962     0.67545313     11512841.88437006
1.69669670     4.82322909     0.73323829     12609355.07256394
1.71171171     4.87269682     0.80198978     13913711.06149512
1.72672673     4.91844627     0.88455147     15480687.57058610
1.74174174     4.95374753     0.98462259     17381893.32329417
1.75675676     4.96908686     1.09889937     19566497.05728117
1.77177177     4.95823926     1.21873958     21885789.59181610
1.78678679     4.91920504     1.33214726     24125065.10543969
1.80180180     4.85974796     1.42521171     26027348.37625786
1.81681682     4.79705744     1.49631520     27553562.29854342
1.83183183     4.73850720     1.55732926     28914092.66682594
1.84684685     4.67856031     1.61617091     30252529.51040196
1.86186186     4.60874764     1.67081534     31529670.73000201
1.87687688     4.52687920     1.71034602     32535934.97568751
1.89189189     4.44257174     1.72490522     33075397.80429861
1.90690691     4.37161135     1.71399923     33127116.93075471
1.92192192     4.32907567     1.68916453     32904191.00498486
1.93693694     4.31859104     1.67322273     32848289.66531581
1.95195195     4.32397864     1.68572267     33350225.64499065
1.96696697     4.32151603     1.72768453     34443322.46784855
1.98198198     4.29515963     1.78712388     35900284.16460928
1.99699700     4.23703935     1.84652761     37374616.28183166
2.01201201     4.15160464     1.88460044     38432035.18632907
2.02702703     4.05694705     1.88844920     38797913.65210020
2.04204204     3.97382012     1.85921763     38480298.55077182
2.05705706     3.91805211     1.81020462     37741358.88440202
2.07207207     3.89163397     1.76167883     36997733.26653959
2.08708709     3.88295334     1.72543121     36499065.55441809
2.10210210     3.88181096     1.70103920     36241958.05766696
2.11711712     3.88489777     1.68506772     36158113.97811767
2.13213213     3.89343710     1.67760154     36253209.15129770
2.14714715     3.90495135     1.68402851     36648379.25353135
2.16216216     3.91078151     1.70544901     37374081.39262135
2.17717718     3.90443757     1.73767597     38344766.16663873
2.19219219     3.88020737     1.77479320     39433916.05241719
2.20720721     3.83608097     1.80495439     40378749.36576839
2.22222222     3.78049767     1.81862990     40961451.49499962
2.23723724     3.72145163     1.81555634     41168523.79845740
2.25225225     3.66307686     1.79353112     40942039.35138303
2.26726727     3.61695468     1.75052471     40226707.65566720
2.28228228     3.59577018     1.69786304     39274940.68101679
2.29729730     3.59736567     1.65296056     38487811.59148636
2.31231231     3.61004706     1.62286620     38034063.82444453
2.32732733     3.62501413     1.60686422     37903575.23259465
2.34234234     3.63527191     1.60131893     38016465.03322052
2.35735736     3.63826198     1.59846780     38192038.68507312
2.37237237     3.63781295     1.59255205     38293055.27037998
2.38738739     3.64032652     1.58208236     38282078.51521415
2.40240240     3.65274716     1.57279488     38296701.06466598
2.41741742     3.67231865     1.57611562     38617419.15456116
2.43243243     3.68730699     1.59552874     39335886.47661180
2.44744745     3.68798268     1.62595038     40333340.24514765
2.46246246     3.66814926     1.65769167     41372989.08482027
2.47747748     3.62855969     1.67631373     42092870.58449171
2.49249249     3.58218473     1.67017676     42192943.23114449
2.50750751     3.54715812     1.64205466     41732401.57511511
2.52252252     3.53147272     1.60627245     41067454.82911853
2.53753754     3.53072424     1.57444644     40493367.18089534
2.55255255     3.53722648     1.55052538     40114103.98753965
2.56756757     3.54411756     1.53279944     39888778.82909855
2.58258258     3.54947465     1.51532687     39664690.13697615
2.59759760     3.55732945     1.49454031     39348033.41677988
2.61261261     3.57265861     1.47208589     38980885.04957029
2.62762763     3.59730960     1.45318356     38701502.09596165
2.64264264     3.62882702     1.44285447     38645995.02393355
2.65765766     3.66259021     1.44298708     38869146.68736542
2.67267267     3.69506081     1.45345955     39372432.50417968
2.68768769     3.72216704     1.47404175     40154304.99840635
2.70270270     3.73900177     1.50144620     41129324.49576460
2.71771772     3.74397890     1.52972911     42136882.52230423
2.73273273     3.73784337     1.55420322     43047554.86133200
2.74774775     3.72204533     1.56889374     43693206.52490027
2.76276276     3.70388128     1.56753273     43893856.32635637
2.77777778     3.69497693     1.55134627     43676695.38314398
2.79279279     3.70264555     1.53003742     43309611.91452230
2.80780781     3.72448241     1.51490269     43111748.74636850
2.82282282     3.75211010     1.50978990     43196012.83418403
2.83783784     3.78088661     1.51213690     43493285.16251830
2.85285285     3.81001140     1.52060977     43968401.05252419
2.86786787     3.83792838     1.53464859     44607882.58866949
2.88288288     3.86417482     1.55253194     45363971.45197196
2.89789790     3.88947040     1.57398376     46230314.86811730
2.91291291     3.91408143     1.59955517     47224813.35325243
2.92792793     3.93762204     1.63142198     48413916.53564809
2.94294294     3.95574524     1.67156901     49859702.09094962
2.95795796     3.96241575     1.71685958     51471911.64637487
2.97297297     3.95552995     1.75938399     53014555.07467227
2.98798799     3.93987009     1.79196617     54269045.15007631
3.00300300     3.92270213     1.81323911     55189234.47294526
3.01801802     3.90945032     1.82548756     55839848.54781600
3.03303303     3.90312585     1.83315428     56353342.66790665
3.04804805     3.90328229     1.84003459     56844875.68409298
3.06306306     3.91039910     1.84827593     57380756.83404279
3.07807808     3.92362386     1.86384634     58147796.64483202
3.09309309     3.93480818     1.88998784     59250978.47329295
3.10810811     3.93728289     1.92110593     60518890.14145231
3.12312312     3.93168309     1.95095378     61756064.28009704
3.13813814     3.91973904     1.97693929     62879476.15788980
3.15315315     3.90261956     1.99529947     63767101.58441861
3.16816817     3.88651224     2.00196749     64284870.47794621
3.18318318     3.88045687     2.00095994     64557031.37391827
3.19819820     3.88470565     2.00249305     64911241.62505277
3.21321321     3.89142772     2.00919067     65434113.32943442
3.22822823     3.89864357     2.01577003     65955154.26067857
3.24324324     3.91162250     2.02118476     66439913.96675682
3.25825826     3.93321317     2.03219647     67111156.37611651
3.27327327     3.95711417     2.05578447     68202983.20059375
3.28828829     3.97331657     2.08984260     69650941.11290491
3.30330330     3.97817129     2.12527264     71155197.27379309
3.31831832     3.97636335     2.15506966     72480784.24928664
3.33333333     3.97390946     2.17926379     73626146.95772059
3.34834835     3.97259136     2.19985940     74656750.59967223
3.36336336     3.97461917     2.21722674     75583573.78217015
3.37837838     3.98239632     2.23633136     76575169.85076520
3.39339339     3.98928626     2.26206924     77800722.49851893
3.40840841     3.98805959     2.28663690     78993682.73322207
3.42342342     3.98611662     2.30000234     79805426.22063409
3.43843844     3.99538375     2.30595205     80362798.50186276
3.45345345     4.01813803     2.31447550     81012068.35235767
3.46846847     4.05061990     2.33243280     81995575.20526868
3.48348348     4.08634746     2.36258897     83415249.51352374
3.49849850     4.12056793     2.40262134     85194301.68900737
3.51351351     4.15229863     2.45087708     87278381.56538649
3.52852853     4.17897627     2.50663743     89645538.33639167
3.54354354     4.19906361     2.56582141     92152627.53431991
3.55855856     4.21505635     2.62563704     94700513.11759454
3.57357357     4.22864358     2.68557549     97271053.09874713
3.58858859     4.24298028     2.74413924     99809835.98771654
3.60360360     4.26323852     2.80468408     102438801.03969698
3.61861862     4.28950527     2.87304484     105372854.20127092
3.63363363     4.32128328     2.95299972     108754708.33967778
3.64864865     4.35744632     3.05198810     112864771.22602354
3.66366366     4.38993794     3.17831425     118020094.34911524
3.67867868     4.40502984     3.33526839     124355834.92114539
3.69369369     4.38721755     3.51841894     131720070.00340201
3.70870871     4.32332670     3.71670942     139709152.63299870
3.72372372     4.20218335     3.91224190     147654496.54982129
3.73873874     4.02191606     4.07600224     154455386.06843111
3.75375375     3.80251156     4.17674186     158908430.79277596
3.76876877     3.58692314     4.20227912     160519542.66489238
3.78378378     3.41631894     4.17919218     160273669.02974150
3.79879880     3.29367039     4.15413286     159944827.37587175
3.81381381     3.18728461     4.15259099     160517419.69966766
3.82882883     3.06195918     4.16340430     161569009.61818781
3.84384384     2.91031800     4.14937933     161656212.73021728
3.85885886     2.76493096     4.08591634     159805561.75975108
3.87387387     2.66329526     3.99008025     156664512.83475822
3.88888889     2.61204530     3.89872188     153670787.26073158
3.90390390     2.59217328     3.83631685     151794876.51601732
3.91891892     2.58044455     3.80813684     151259391.85179526
3.93393393     2.55854246     3.80988351     151908573.10730559
3.94894895     2.50957157     3.83048067     153312766.31088054
3.96396396     2.42372999     3.84591338     154515738.08112079
3.97897898     2.31339857     3.82800901     154378963.85056522
3.99399399     2.20916526     3.76832151     152545317.56455290
4.00900901     2.13349265     3.68269323     149639449.32040158
4.02402402     2.09036880     3.59072436     146448914.92252922
4.03903904     2.07577654     3.50566845     143513387.87204796
4.05405405     2.08315417     3.43672880     141214184.41008809
4.06906907     2.10432897     3.39020677     139818543.60029632
4.08408408     2.12896429     3.36999983     139498031.43688390
4.09909910     2.14492151     3.37520001     140226939.81600752
4.11411411     2.14082037     3.39993143     141771853.38241339
4.12912913     2.10679648     3.43229582     143643739.25548479
4.14414414     2.04028167     3.45294169     145033264.49638945
4.15915916     1.95342433     3.44179768     145088971.79394436
4.17417417     1.87125655     3.39238761     143522357.60214376
4.18918919     1.81444044     3.31795004     140878053.44881904
4.20420420     1.78750187     3.23752494     137955954.28830194
4.21921922     1.78562951     3.16440561     135321798.67806938
4.23423423     1.80080838     3.10714503     133345980.49918665
4.24924925     1.82217459     3.06905839     132178519.26547329
4.26426426     1.84014519     3.04607950     131652427.01845603
4.27927928     1.85233764     3.03047419     131439151.21257313
4.29429429     1.86240395     3.01911777     131406056.69683166
4.30930931     1.87179542     3.01517386     131693261.24655092
4.32432432     1.87594445     3.02138659     132424420.30139185
4.33933934     1.86862289     3.03593855     133524240.40277155
4.35435435     1.84368840     3.05353488     134762847.66004616
4.36936937     1.79711557     3.06191264     135598561.24574596
4.38438438     1.73762786     3.04447948     135289844.81741276
4.39939940     1.68723519     2.99743096     133655275.57905307
4.41441441     1.66165591     2.93590920     131358822.40166308
4.42942943     1.65921171     2.87757697     129186836.01683955
4.44444444     1.67042768     2.82999034     127481146.43334506
4.45945946     1.68824604     2.79366517     126269976.24280956
4.47447447     1.70808277     2.76804002     125533004.68118638
4.48948949     1.72526293     2.75065634     125163246.22600448
4.50450450     1.73880796     2.73584338     124905563.34429337
4.51951952     1.75341167     2.72120788     124651501.02902672
4.53453453     1.77156903     2.71073991     124584521.65677920
4.54954955     1.79049601     2.70717558     124832695.76831786
4.56456457     1.80791723     2.71026799     125387751.93138851
4.57957958     1.82255370     2.72013721     126258302.91369049
4.59459460     1.83185700     2.73810692     127509084.25440659
4.60960961     1.82887261     2.76329176     129102428.94379558
4.62462463     1.80757576     2.78549663     130563760.67628928
4.63963964     1.77499091     2.79093763     131243531.32743804
4.65465465     1.74767313     2.77906696     131108244.10633737
4.66966967     1.73224772     2.76297036     130769333.81010775
4.68468468     1.72137990     2.75024123     130585416.62607631
4.69969970     1.71009652     2.73750784     130397422.01051316
4.71471472     1.69984373     2.72238810     130091518.14504479
4.72972973     1.69166287     2.70466511     129656217.70162398
4.74474475     1.68719803     2.68385621     129067121.22873595
4.75975976     1.68906609     2.66095114     128370566.54206157
