# energy grid [eV]     ieps_x  ieps_y  ieps_z
#
    0.000000000   10.107524873   10.107524873   10.107524873
    0.015015015   10.106643250   10.106643250   10.106643250
    0.030030030   10.105117608   10.105117608   10.105117608
    0.045045045   10.103272751   10.103272751   10.103272751
    0.060060060   10.101113334   10.101113334   10.101113334
    0.075075075   10.098640247   10.098640247   10.098640247
    0.090090090   10.095854488   10.095854488   10.095854488
    0.105105105   10.092757180   10.092757180   10.092757180
    0.120120120   10.089349562   10.089349562   10.089349562
    0.135135135   10.085632993   10.085632993   10.085632993
    0.150150150   10.081608946   10.081608946   10.081608946
    0.165165165   10.077279008   10.077279008   10.077279008
    0.180180180   10.072644874   10.072644874   10.072644874
    0.195195195   10.067708347   10.067708347   10.067708347
    0.210210210   10.062471336   10.062471336   10.062471336
    0.225225225   10.056935847   10.056935847   10.056935847
    0.240240240   10.051103987   10.051103987   10.051103987
    0.255255255   10.044977956   10.044977956   10.044977956
    0.270270270   10.038560043   10.038560043   10.038560043
    0.285285285   10.031852628   10.031852628   10.031852628
    0.300300300   10.024858173   10.024858173   10.024858173
    0.315315315   10.017579218   10.017579218   10.017579218
    0.330330330   10.010018383   10.010018383   10.010018383
    0.345345345   10.002178359   10.002178359   10.002178359
    0.360360360    9.994061907    9.994061907    9.994061907
    0.375375375    9.985671851    9.985671851    9.985671851
    0.390390390    9.977011079    9.977011079    9.977011079
    0.405405405    9.968082537    9.968082537    9.968082537
    0.420420420    9.958889225    9.958889225    9.958889225
    0.435435435    9.949434192    9.949434193    9.949434193
    0.450450450    9.939720538    9.939720538    9.939720538
    0.465465465    9.929751402    9.929751402    9.929751402
    0.480480480    9.919529966    9.919529966    9.919529966
    0.495495495    9.909059450    9.909059450    9.909059450
    0.510510511    9.898343105    9.898343105    9.898343105
    0.525525526    9.887384214    9.887384214    9.887384214
    0.540540541    9.876186085    9.876186085    9.876186085
    0.555555556    9.864752052    9.864752052    9.864752052
    0.570570571    9.853085471    9.853085471    9.853085471
    0.585585586    9.841189713    9.841189713    9.841189713
    0.600600601    9.829068167    9.829068167    9.829068167
    0.615615616    9.816724234    9.816724234    9.816724234
    0.630630631    9.804161325    9.804161325    9.804161325
    0.645645646    9.791382859    9.791382859    9.791382859
    0.660660661    9.778392258    9.778392258    9.778392258
    0.675675676    9.765192950    9.765192950    9.765192950
    0.690690691    9.751788362    9.751788362    9.751788362
    0.705705706    9.738181920    9.738181920    9.738181920
    0.720720721    9.724377046    9.724377046    9.724377046
    0.735735736    9.710377157    9.710377157    9.710377157
    0.750750751    9.696185662    9.696185662    9.696185662
    0.765765766    9.681805962    9.681805962    9.681805962
    0.780780781    9.667241446    9.667241446    9.667241446
    0.795795796    9.652495493    9.652495493    9.652495493
    0.810810811    9.637571465    9.637571465    9.637571465
    0.825825826    9.622472712    9.622472712    9.622472712
    0.840840841    9.607202565    9.607202565    9.607202565
    0.855855856    9.591764340    9.591764340    9.591764340
    0.870870871    9.576161331    9.576161331    9.576161331
    0.885885886    9.560396814    9.560396814    9.560396814
    0.900900901    9.544474044    9.544474044    9.544474044
    0.915915916    9.528396253    9.528396253    9.528396253
    0.930930931    9.512166651    9.512166651    9.512166651
    0.945945946    9.495788423    9.495788423    9.495788423
    0.960960961    9.479264730    9.479264730    9.479264730
    0.975975976    9.462598710    9.462598710    9.462598710
    0.990990991    9.445793472    9.445793472    9.445793472
    1.006006006    9.428852100    9.428852100    9.428852100
    1.021021021    9.411777650    9.411777650    9.411777650
    1.036036036    9.394573151    9.394573151    9.394573151
    1.051051051    9.377241606    9.377241606    9.377241606
    1.066066066    9.359785985    9.359785985    9.359785985
    1.081081081    9.342209233    9.342209233    9.342209233
    1.096096096    9.324514265    9.324514265    9.324514265
    1.111111111    9.306703964    9.306703964    9.306703964
    1.126126126    9.288781187    9.288781187    9.288781187
    1.141141141    9.270748758    9.270748758    9.270748758
    1.156156156    9.252609473    9.252609473    9.252609473
    1.171171171    9.234366095    9.234366095    9.234366095
    1.186186186    9.216021359    9.216021359    9.216021359
    1.201201201    9.197577967    9.197577967    9.197577967
    1.216216216    9.179038593    9.179038593    9.179038593
    1.231231231    9.160405877    9.160405877    9.160405877
    1.246246246    9.141682430    9.141682430    9.141682430
    1.261261261    9.122870831    9.122870831    9.122870831
    1.276276276    9.103973630    9.103973630    9.103973630
    1.291291291    9.084993344    9.084993344    9.084993344
    1.306306306    9.065932458    9.065932458    9.065932458
    1.321321321    9.046793430    9.046793430    9.046793430
    1.336336336    9.027578684    9.027578684    9.027578684
    1.351351351    9.008290614    9.008290614    9.008290614
    1.366366366    8.988931584    8.988931584    8.988931584
    1.381381381    8.969503925    8.969503925    8.969503925
    1.396396396    8.950009941    8.950009941    8.950009941
    1.411411411    8.930451903    8.930451903    8.930451903
    1.426426426    8.910832053    8.910832053    8.910832053
    1.441441441    8.891152602    8.891152602    8.891152602
    1.456456456    8.871415732    8.871415732    8.871415732
    1.471471471    8.851623595    8.851623595    8.851623595
    1.486486486    8.831778312    8.831778312    8.831778312
    1.501501502    8.811881976    8.811881976    8.811881976
    1.516516517    8.791936651    8.791936651    8.791936651
    1.531531532    8.771944370    8.771944370    8.771944370
    1.546546547    8.751907139    8.751907139    8.751907139
    1.561561562    8.731826934    8.731826934    8.731826934
    1.576576577    8.711705704    8.711705704    8.711705704
    1.591591592    8.691545368    8.691545368    8.691545368
    1.606606607    8.671347817    8.671347817    8.671347817
    1.621621622    8.651114916    8.651114916    8.651114916
    1.636636637    8.630848500    8.630848500    8.630848500
    1.651651652    8.610550378    8.610550378    8.610550378
    1.666666667    8.590222331    8.590222331    8.590222331
    1.681681682    8.569866114    8.569866114    8.569866114
    1.696696697    8.549483454    8.549483454    8.549483454
    1.711711712    8.529076053    8.529076053    8.529076053
    1.726726727    8.508645585    8.508645585    8.508645585
    1.741741742    8.488193700    8.488193700    8.488193700
    1.756756757    8.467722019    8.467722019    8.467722019
    1.771771772    8.447232141    8.447232141    8.447232141
    1.786786787    8.426725638    8.426725638    8.426725638
    1.801801802    8.406204056    8.406204056    8.406204056
    1.816816817    8.385668918    8.385668918    8.385668918
    1.831831832    8.365121721    8.365121721    8.365121721
    1.846846847    8.344563938    8.344563938    8.344563938
    1.861861862    8.323997020    8.323997020    8.323997020
    1.876876877    8.303422390    8.303422390    8.303422390
    1.891891892    8.282841451    8.282841451    8.282841451
    1.906906907    8.262255580    8.262255580    8.262255580
    1.921921922    8.241666134    8.241666134    8.241666134
    1.936936937    8.221074444    8.221074444    8.221074444
    1.951951952    8.200481820    8.200481820    8.200481820
    1.966966967    8.179889550    8.179889550    8.179889550
    1.981981982    8.159298898    8.159298898    8.159298898
    1.996996997    8.138711108    8.138711108    8.138711108
    2.012012012    8.118127402    8.118127402    8.118127402
    2.027027027    8.097548980    8.097548980    8.097548980
    2.042042042    8.076977021    8.076977021    8.076977021
    2.057057057    8.056412683    8.056412683    8.056412683
    2.072072072    8.035857104    8.035857104    8.035857104
    2.087087087    8.015311401    8.015311401    8.015311401
    2.102102102    7.994776671    7.994776671    7.994776671
    2.117117117    7.974253992    7.974253992    7.974253992
    2.132132132    7.953744420    7.953744420    7.953744420
    2.147147147    7.933248993    7.933248993    7.933248993
    2.162162162    7.912768731    7.912768731    7.912768731
    2.177177177    7.892304632    7.892304632    7.892304632
    2.192192192    7.871857678    7.871857678    7.871857678
    2.207207207    7.851428830    7.851428830    7.851428830
    2.222222222    7.831019034    7.831019034    7.831019034
    2.237237237    7.810629215    7.810629215    7.810629215
    2.252252252    7.790260282    7.790260282    7.790260282
    2.267267267    7.769913124    7.769913124    7.769913124
    2.282282282    7.749588615    7.749588615    7.749588615
    2.297297297    7.729287611    7.729287611    7.729287611
    2.312312312    7.709010951    7.709010951    7.709010951
    2.327327327    7.688759458    7.688759458    7.688759458
    2.342342342    7.668533937    7.668533937    7.668533937
    2.357357357    7.648335177    7.648335177    7.648335177
    2.372372372    7.628163953    7.628163953    7.628163953
    2.387387387    7.608021022    7.608021022    7.608021022
    2.402402402    7.587907126    7.587907126    7.587907126
    2.417417417    7.567822990    7.567822990    7.567822990
    2.432432432    7.547769328    7.547769328    7.547769328
    2.447447447    7.527746834    7.527746834    7.527746834
    2.462462462    7.507756191    7.507756191    7.507756191
    2.477477477    7.487798065    7.487798065    7.487798065
    2.492492492    7.467873109    7.467873109    7.467873109
    2.507507508    7.447981960    7.447981960    7.447981960
    2.522522523    7.428125244    7.428125244    7.428125244
    2.537537538    7.408303570    7.408303570    7.408303570
    2.552552553    7.388517536    7.388517536    7.388517536
    2.567567568    7.368767724    7.368767724    7.368767724
    2.582582583    7.349054704    7.349054704    7.349054704
    2.597597598    7.329379034    7.329379034    7.329379034
    2.612612613    7.309741259    7.309741259    7.309741259
    2.627627628    7.290141908    7.290141908    7.290141908
    2.642642643    7.270581502    7.270581502    7.270581502
    2.657657658    7.251060547    7.251060547    7.251060547
    2.672672673    7.231579537    7.231579537    7.231579537
    2.687687688    7.212138956    7.212138956    7.212138956
    2.702702703    7.192739274    7.192739274    7.192739274
    2.717717718    7.173380950    7.173380950    7.173380950
    2.732732733    7.154064431    7.154064431    7.154064431
    2.747747748    7.134790155    7.134790155    7.134790155
    2.762762763    7.115558547    7.115558547    7.115558547
    2.777777778    7.096370021    7.096370021    7.096370021
    2.792792793    7.077224982    7.077224982    7.077224982
    2.807807808    7.058123821    7.058123821    7.058123821
    2.822822823    7.039066922    7.039066922    7.039066922
    2.837837838    7.020054656    7.020054656    7.020054656
    2.852852853    7.001087388    7.001087388    7.001087388
    2.867867868    6.982165468    6.982165468    6.982165468
    2.882882883    6.963289238    6.963289238    6.963289238
    2.897897898    6.944459033    6.944459033    6.944459033
    2.912912913    6.925675175    6.925675175    6.925675175
    2.927927928    6.906937978    6.906937978    6.906937978
    2.942942943    6.888247747    6.888247747    6.888247747
    2.957957958    6.869604777    6.869604777    6.869604777
    2.972972973    6.851009355    6.851009355    6.851009355
    2.987987988    6.832461759    6.832461759    6.832461759
    3.003003003    6.813962259    6.813962259    6.813962259
    3.018018018    6.795511115    6.795511115    6.795511115
    3.033033033    6.777108579    6.777108579    6.777108579
    3.048048048    6.758754896    6.758754896    6.758754896
    3.063063063    6.740450302    6.740450302    6.740450302
    3.078078078    6.722195025    6.722195025    6.722195025
    3.093093093    6.703989284    6.703989284    6.703989284
    3.108108108    6.685833294    6.685833294    6.685833294
    3.123123123    6.667727258    6.667727258    6.667727258
    3.138138138    6.649671375    6.649671375    6.649671375
    3.153153153    6.631665834    6.631665834    6.631665834
    3.168168168    6.613710818    6.613710818    6.613710818
    3.183183183    6.595806504    6.595806504    6.595806504
    3.198198198    6.577953059    6.577953059    6.577953059
    3.213213213    6.560150647    6.560150647    6.560150647
    3.228228228    6.542399423    6.542399423    6.542399423
    3.243243243    6.524699535    6.524699535    6.524699535
    3.258258258    6.507051125    6.507051125    6.507051125
    3.273273273    6.489454329    6.489454329    6.489454329
    3.288288288    6.471909277    6.471909277    6.471909277
    3.303303303    6.454416092    6.454416092    6.454416092
    3.318318318    6.436974892    6.436974892    6.436974892
    3.333333333    6.419585786    6.419585786    6.419585786
    3.348348348    6.402248882    6.402248882    6.402248882
    3.363363363    6.384964279    6.384964279    6.384964279
    3.378378378    6.367732070    6.367732070    6.367732070
    3.393393393    6.350552344    6.350552344    6.350552344
    3.408408408    6.333425183    6.333425183    6.333425183
    3.423423423    6.316350667    6.316350667    6.316350667
    3.438438438    6.299328866    6.299328866    6.299328866
    3.453453453    6.282359849    6.282359849    6.282359849
    3.468468468    6.265443676    6.265443676    6.265443676
    3.483483483    6.248580406    6.248580406    6.248580406
    3.498498498    6.231770090    6.231770090    6.231770090
    3.513513514    6.215012776    6.215012776    6.215012776
    3.528528529    6.198308507    6.198308507    6.198308507
    3.543543544    6.181657320    6.181657320    6.181657320
    3.558558559    6.165059249    6.165059249    6.165059249
    3.573573574    6.148514323    6.148514323    6.148514323
    3.588588589    6.132022566    6.132022566    6.132022566
    3.603603604    6.115584000    6.115584000    6.115584000
    3.618618619    6.099198640    6.099198640    6.099198640
    3.633633634    6.082866498    6.082866498    6.082866498
    3.648648649    6.066587583    6.066587583    6.066587583
    3.663663664    6.050361897    6.050361897    6.050361897
    3.678678679    6.034189442    6.034189442    6.034189442
    3.693693694    6.018070213    6.018070213    6.018070213
    3.708708709    6.002004203    6.002004203    6.002004203
    3.723723724    5.985991401    5.985991401    5.985991401
    3.738738739    5.970031792    5.970031792    5.970031792
    3.753753754    5.954125357    5.954125357    5.954125357
    3.768768769    5.938272075    5.938272075    5.938272075
    3.783783784    5.922471921    5.922471921    5.922471921
    3.798798799    5.906724865    5.906724865    5.906724865
    3.813813814    5.891030877    5.891030877    5.891030877
    3.828828829    5.875389921    5.875389921    5.875389921
    3.843843844    5.859801960    5.859801960    5.859801960
    3.858858859    5.844266951    5.844266951    5.844266951
    3.873873874    5.828784851    5.828784851    5.828784851
    3.888888889    5.813355612    5.813355612    5.813355612
    3.903903904    5.797979185    5.797979185    5.797979185
    3.918918919    5.782655516    5.782655516    5.782655516
    3.933933934    5.767384551    5.767384551    5.767384551
    3.948948949    5.752166230    5.752166230    5.752166230
    3.963963964    5.737000493    5.737000493    5.737000493
    3.978978979    5.721887277    5.721887277    5.721887277
    3.993993994    5.706826514    5.706826514    5.706826514
    4.009009009    5.691818137    5.691818137    5.691818137
    4.024024024    5.676862074    5.676862074    5.676862074
    4.039039039    5.661958252    5.661958252    5.661958252
    4.054054054    5.647106596    5.647106596    5.647106596
    4.069069069    5.632307027    5.632307027    5.632307027
    4.084084084    5.617559465    5.617559465    5.617559465
    4.099099099    5.602863828    5.602863828    5.602863828
    4.114114114    5.588220031    5.588220031    5.588220031
    4.129129129    5.573627988    5.573627988    5.573627988
    4.144144144    5.559087611    5.559087611    5.559087611
    4.159159159    5.544598808    5.544598808    5.544598808
    4.174174174    5.530161487    5.530161487    5.530161487
    4.189189189    5.515775553    5.515775553    5.515775553
    4.204204204    5.501440911    5.501440911    5.501440911
    4.219219219    5.487157463    5.487157463    5.487157463
    4.234234234    5.472925108    5.472925108    5.472925108
    4.249249249    5.458743746    5.458743746    5.458743746
    4.264264264    5.444613272    5.444613272    5.444613272
    4.279279279    5.430533582    5.430533582    5.430533582
    4.294294294    5.416504571    5.416504571    5.416504571
    4.309309309    5.402526129    5.402526129    5.402526129
    4.324324324    5.388598147    5.388598147    5.388598147
    4.339339339    5.374720515    5.374720515    5.374720515
    4.354354354    5.360893120    5.360893120    5.360893120
    4.369369369    5.347115849    5.347115849    5.347115849
    4.384384384    5.333388585    5.333388585    5.333388585
    4.399399399    5.319711214    5.319711214    5.319711214
    4.414414414    5.306083616    5.306083616    5.306083616
    4.429429429    5.292505674    5.292505674    5.292505674
    4.444444444    5.278977266    5.278977266    5.278977266
    4.459459459    5.265498272    5.265498272    5.265498272
    4.474474474    5.252068568    5.252068568    5.252068568
    4.489489489    5.238688032    5.238688032    5.238688032
    4.504504505    5.225356538    5.225356538    5.225356538
    4.519519520    5.212073961    5.212073961    5.212073961
    4.534534535    5.198840173    5.198840173    5.198840173
    4.549549550    5.185655047    5.185655047    5.185655047
    4.564564565    5.172518455    5.172518455    5.172518455
    4.579579580    5.159430265    5.159430265    5.159430265
    4.594594595    5.146390349    5.146390349    5.146390349
    4.609609610    5.133398573    5.133398573    5.133398573
    4.624624625    5.120454807    5.120454807    5.120454807
    4.639639640    5.107558915    5.107558915    5.107558915
    4.654654655    5.094710765    5.094710765    5.094710765
    4.669669670    5.081910222    5.081910222    5.081910222
    4.684684685    5.069157150    5.069157150    5.069157150
    4.699699700    5.056451413    5.056451413    5.056451413
    4.714714715    5.043792874    5.043792874    5.043792874
    4.729729730    5.031181396    5.031181396    5.031181396
    4.744744745    5.018616839    5.018616839    5.018616839
    4.759759760    5.006099065    5.006099065    5.006099065
    4.774774775    4.993627935    4.993627935    4.993627935
    4.789789790    4.981203309    4.981203309    4.981203309
    4.804804805    4.968825046    4.968825046    4.968825046
    4.819819820    4.956493004    4.956493004    4.956493004
    4.834834835    4.944207043    4.944207043    4.944207043
    4.849849850    4.931967020    4.931967020    4.931967020
    4.864864865    4.919772792    4.919772792    4.919772792
    4.879879880    4.907624217    4.907624217    4.907624217
    4.894894895    4.895521150    4.895521150    4.895521150
